Sampling Rate : 128 Hz,Duration : 10 Minutes
Time,PPG
0,-66835.53906
0.0078125,-68639.05469
0.015625,-70281.98438
0.0234375,-71705.11719
0.03125,-73029.98438
0.0390625,-74517.57813
0.046875,-76344.54688
0.0546875,-78365
0.0625,-80126.21875
0.0703125,-81233.71094
0.078125,-81794.10156
0.0859375,-82472.64063
0.09375,-83930.14063
0.1015625,-85995.58594
0.109375,-87320.41406
0.1171875,-86021.52344
0.125,-81019.73438
0.1328125,-73081.40625
0.140625,-64662.00781
0.1484375,-58526.58203
0.15625,-56118.98438
0.1640625,-56855.21875
0.171875,-58794.53516
0.1796875,-60075.06641
0.1875,-60001.11328
0.1953125,-59099.01172
0.203125,-58329.23047
0.2109375,-58238.29688
0.21875,-58680.17578
0.2265625,-59148.99609
0.234375,-59282.19141
0.2421875,-59091.91406
0.25,-58832.14844
0.2578125,-58721
0.265625,-58789.47266
0.2734375,-58924.24609
0.28125,-59007.91406
0.2890625,-59006.01953
0.296875,-58956.25781
0.3046875,-58908.71484
0.3125,-58880.66797
0.3203125,-58862.74609
0.328125,-58841.03516
0.3359375,-58816.39063
0.34375,-58800.34375
0.3515625,-58800.81641
0.359375,-58813.19531
0.3671875,-58823.02344
0.375,-58819.85938
0.3828125,-58804.91797
0.390625,-58792.35938
0.3984375,-58795.85938
0.40625,-58817.89063
0.4140625,-58845.70313
0.421875,-58860.0625
0.4296875,-58850.44922
0.4375,-58822.14844
0.4453125,-58795.45703
0.453125,-58789.14063
0.4609375,-58809.23828
0.46875,-58844.30859
0.4765625,-58873.87891
0.484375,-58882.91797
0.4921875,-58869.18359
0.5,-58845.74609
0.5078125,-58824.74219
0.515625,-58815.28516
0.5234375,-58815.46484
0.53125,-58817.28906
0.5390625,-58814.73828
0.546875,-58807.61719
0.5546875,-58802.29688
0.5625,-58803.54297
0.5703125,-58811.04297
0.578125,-58818.73438
0.5859375,-58820.85547
0.59375,-58817.5
0.6015625,-58814.10156
0.609375,-58816.81641
0.6171875,-58824.59766
0.625,-58829.48438
0.6328125,-58821.25
0.640625,-58797.22656
0.6484375,-58766.44141
0.65625,-58744.76563
0.6640625,-58745.28125
0.671875,-58767.57422
0.6796875,-58799.58594
0.6875,-58823.27734
0.6953125,-58827.82813
0.703125,-58815.50781
0.7109375,-58799.10938
0.71875,-58792.87109
0.7265625,-58800.8125
0.734375,-58816.375
0.7421875,-58825.15625
0.75,-58817.78125
0.7578125,-58796.64063
0.765625,-58775.05078
0.7734375,-58769.16016
0.78125,-58784.93359
0.7890625,-58816.50781
0.796875,-58847.64844
0.8046875,-58864.47266
0.8125,-58862.70703
0.8203125,-58848.42969
0.828125,-58832.75391
0.8359375,-58822.12891
0.84375,-58818.47266
0.8515625,-58818.66016
0.859375,-58820.87891
0.8671875,-58825.05469
0.875,-58831.04688
0.8828125,-58837.02344
0.890625,-58837.73828
0.8984375,-58830.82031
0.90625,-58817.51953
0.9140625,-58804.26172
0.921875,-58797.97266
0.9296875,-58801.37109
0.9375,-58811.87891
0.9453125,-58822.71094
0.953125,-58830.38281
0.9609375,-58835.52344
0.96875,-58843.07422
0.9765625,-58856.32422
0.984375,-58872.71094
0.9921875,-58884.07031
1,-58873.16797
1.0078125,-58848.51172
1.015625,-58821.54688
1.0234375,-58805.53516
1.03125,-58805.54688
1.0390625,-58817.91797
1.046875,-58830.96875
1.0546875,-58835.75781
1.0625,-58831.46484
1.0703125,-58824.8125
1.078125,-58824.13672
1.0859375,-58830.16016
1.09375,-58837.62891
1.1015625,-58837.41797
1.109375,-58826.25
1.1171875,-58809.07422
1.125,-58795.80859
1.1328125,-58794.33984
1.140625,-58802.85156
1.1484375,-58812.625
1.15625,-58811.59766
1.1640625,-58794.83203
1.171875,-58768.5
1.1796875,-58747.5
1.1875,-58747.32031
1.1953125,-58772.39844
1.203125,-58813.73828
1.2109375,-58850.96875
1.21875,-58865.83203
1.2265625,-58853.50781
1.234375,-58825.98438
1.2421875,-58804.75391
1.25,-58804.84766
1.2578125,-58826.12891
1.265625,-58852.12109
1.2734375,-58863.39063
1.28125,-58851.51953
1.2890625,-58824.33984
1.296875,-58800.08203
1.3046875,-58792.23828
1.3125,-58800.875
1.3203125,-58812.59375
1.328125,-58812.29688
1.3359375,-58795.57422
1.34375,-58771.57031
1.3515625,-58758.25781
1.359375,-58767.94141
1.3671875,-58799.78516
1.375,-58839.57031
1.3828125,-58869.32422
1.390625,-58879.01172
1.3984375,-58870.22266
1.40625,-58855.04297
1.4140625,-58844.35156
1.421875,-58841.44922
1.4296875,-58840.45703
1.4375,-58832.56641
1.4453125,-58814.78906
1.453125,-58791.33594
1.4609375,-58772.73047
1.46875,-58765.77344
1.4765625,-58770.14063
1.484375,-58779.36328
1.4921875,-58787.08594
1.5,-58792.53906
1.5078125,-58800.98828
1.515625,-58817.25781
1.5234375,-58840.05469
1.53125,-58860.82813
1.5390625,-58868.62891
1.546875,-58857.85547
1.5546875,-58834.49219
1.5625,-58812.29688
1.5703125,-58805.09375
1.578125,-58816.97266
1.5859375,-58839.67969
1.59375,-58858.23047
1.6015625,-58858.15625
1.609375,-58835.82031
1.6171875,-58797.45313
1.625,-58756.92188
1.6328125,-58728.88281
1.640625,-58722.87891
1.6484375,-58741.34375
1.65625,-58777.12891
1.6640625,-58819.16016
1.671875,-58853.94531
1.6796875,-58873.04688
1.6875,-58875.35938
1.6953125,-58866.44141
1.703125,-58854.69141
1.7109375,-58844.84375
1.71875,-58838.04297
1.7265625,-58831.41797
1.734375,-58823.02344
1.7421875,-58813.6875
1.75,-58805.17969
1.7578125,-58799.29297
1.765625,-58795.53125
1.7734375,-58793.81641
1.78125,-58795.77734
1.7890625,-58804.29297
1.796875,-58820.84766
1.8046875,-58840.39063
1.8125,-58855.16016
1.8203125,-58857.37109
1.828125,-58847.70313
1.8359375,-58835.86328
1.84375,-58834.81641
1.8515625,-58852.39844
1.859375,-58883.08984
1.8671875,-58913.55078
1.875,-58929.20313
1.8828125,-58926.03516
1.890625,-58912.27734
1.8984375,-58902.10938
1.90625,-58906.17188
1.9140625,-58923.81641
1.921875,-58946.77344
1.9296875,-58964.625
1.9375,-58972.99219
1.9453125,-58975.50781
1.953125,-58978.92578
1.9609375,-58990.09375
1.96875,-59010.77344
1.9765625,-59039.23438
1.984375,-59071.30469
1.9921875,-59101.63672
2,-59131.71094
2.0078125,-59143.90234
2.015625,-59152.05078
2.0234375,-59164.39453
2.03125,-59191.08203
2.0390625,-59234.14453
2.046875,-59285.98047
2.0546875,-59331.99219
2.0625,-59359.93359
2.0703125,-59369.76563
2.078125,-59373.88672
2.0859375,-59390.23047
2.09375,-59429.54297
2.1015625,-59488.39844
2.109375,-59552.71094
2.1171875,-59605.88672
2.125,-59641.96484
2.1328125,-59665.51563
2.140625,-59688.98438
2.1484375,-59723.06641
2.15625,-59770.89453
2.1640625,-59827.88281
2.171875,-59883.72656
2.1796875,-59929.16016
2.1875,-59956.94141
2.1953125,-59964.83203
2.203125,-59955.98438
2.2109375,-59936.80859
2.21875,-59916.74609
2.2265625,-59902.14063
2.234375,-59894.37891
2.2421875,-59888.37891
2.25,-59874.96484
2.2578125,-59846.39063
2.265625,-59798.37109
2.2734375,-59734.57813
2.28125,-59662.03906
2.2890625,-59589.62109
2.296875,-59523.96875
2.3046875,-59467.44531
2.3125,-59419.41016
2.3203125,-59376.77344
2.328125,-59336.90234
2.3359375,-59298.3125
2.34375,-59260.79688
2.3515625,-59225.55859
2.359375,-59192.0625
2.3671875,-59160.44922
2.375,-59128.69922
2.3828125,-59095.75781
2.390625,-59061.64844
2.3984375,-59028.02734
2.40625,-58997.82031
2.4140625,-58972.03125
2.421875,-58950.26563
2.4296875,-58928.72266
2.4375,-58903.5
2.4453125,-58873.77344
2.453125,-58842.21094
2.4609375,-58816.46484
2.46875,-58803.16016
2.4765625,-58805.40625
2.484375,-58820.44141
2.4921875,-58840.75
2.5,-58855.32422
2.5078125,-58866.34766
2.515625,-58867.38281
2.5234375,-58860.16016
2.53125,-58849.08984
2.5390625,-58839.65625
2.546875,-58833.29297
2.5546875,-58827.80469
2.5625,-58816.15625
2.5703125,-58794.30469
2.578125,-58769.13672
2.5859375,-58758.51563
2.59375,-58782.31641
2.6015625,-58839.86719
2.609375,-58900.91797
2.6171875,-58918.94531
2.625,-58869.60938
2.6328125,-58783.99219
2.640625,-58738.29688
2.6484375,-58796.04688
2.65625,-58935.57422
2.6640625,-59037.51172
2.671875,-58965.94922
2.6796875,-58698.40234
2.6875,-58406.07031
2.6953125,-58380.64844
2.703125,-58836.58984
2.7109375,-59711.05469
2.71875,-60634.57813
2.7265625,-61126.75391
2.734375,-60907.30859
2.7421875,-60105.12891
2.75,-59200.67578
2.7578125,-58728.85156
2.765625,-58946.44141
2.7734375,-59686.18359
2.78125,-60499.76172
2.7890625,-60960.47656
2.796875,-60920.41797
2.8046875,-60547.22656
2.8125,-60153.84375
2.8203125,-59967.85938
2.828125,-60006.29297
2.8359375,-60123.15234
2.84375,-60159.88672
2.8515625,-60077.02734
2.859375,-59977.34766
2.8671875,-60017.32813
2.875,-60282.71875
2.8828125,-60698.60938
2.890625,-61032.64063
2.8984375,-60987.49609
2.90625,-60347.49609
2.9140625,-59120.66797
2.921875,-57595.64453
2.9296875,-56266.43359
2.9375,-55622.87109
2.9453125,-55903.71094
2.953125,-56946.5625
2.9609375,-58244.3125
2.96875,-59201.97266
2.9765625,-59449.56641
2.984375,-59028.96875
2.9921875,-58334.94531
3,-30005.52148
3.0078125,-30551.95508
3.015625,-31072.20703
3.0234375,-31572.24023
3.03125,-32071.88086
3.0390625,-32592.89063
3.046875,-33140.22656
3.0546875,-33688.37891
3.0625,-34184.07031
3.0703125,-34567.65234
3.078125,-34800.6875
3.0859375,-34886.07031
3.09375,-34866.89453
3.1015625,-34804.77734
3.109375,-34753.08594
3.1171875,-34735.89844
3.125,-34747.16016
3.1328125,-34765.12891
3.140625,-34770.3125
3.1484375,-34757.82813
3.15625,-34736.125
3.1640625,-34717.92969
3.171875,-34710.57031
3.1796875,-34711.86719
3.1875,-34713.74609
3.1953125,-34708.75781
3.203125,-34694.78516
3.2109375,-34676.66406
3.21875,-34661.51172
3.2265625,-34654.79297
3.234375,-34656.99219
3.2421875,-34662.91406
3.25,-34665.92188
3.2578125,-34660.20703
3.265625,-34644.08594
3.2734375,-34620.57031
3.28125,-34594.68359
3.2890625,-34571.32031
3.296875,-34552.54688
3.3046875,-34537.32422
3.3125,-34523.07031
3.3203125,-34507.00391
3.328125,-34488.05078
3.3359375,-34466.58203
3.34375,-34443.03125
3.3515625,-34418.31641
3.359375,-34392.03906
3.3671875,-34363.91797
3.375,-34334.30078
3.3828125,-34303.62891
3.390625,-34273.83203
3.3984375,-34246.25
3.40625,-34221.86719
3.4140625,-34201.44922
3.421875,-34184.92578
3.4296875,-34172.41406
3.4375,-34163.71875
3.4453125,-34158.16797
3.453125,-34154.54688
3.4609375,-34150.48438
3.46875,-34143.63281
3.4765625,-34132.49219
3.484375,-34116.96094
3.4921875,-34100.01172
3.5,-34085.17188
3.5078125,-34076.01172
3.515625,-34073.48828
3.5234375,-34074.98438
3.53125,-34076.89063
3.5390625,-34075.46484
3.546875,-34069.37891
3.5546875,-34060.50781
3.5625,-34051.78516
3.5703125,-34045.71094
3.578125,-34042.39453
3.5859375,-34039.73047
3.59375,-34035.125
3.6015625,-34026.5
3.609375,-34013.83984
3.6171875,-33998.49609
3.625,-33981.83594
3.6328125,-33966.04297
3.640625,-33952.53516
3.6484375,-33942.94141
3.65625,-33938.74609
3.6640625,-33939.50391
3.671875,-33943.64063
3.6796875,-33947.19531
3.6875,-33945.91016
3.6953125,-33937.64453
3.703125,-33923.15234
3.7109375,-33906.80469
3.71875,-33894.23047
3.7265625,-33889.78125
3.734375,-33894.53516
3.7421875,-33905.22656
3.75,-33916.17969
3.7578125,-33921.55078
3.765625,-33917.28125
3.7734375,-33903.83594
3.78125,-33884.49219
3.7890625,-33864.59766
3.796875,-33849.37891
3.8046875,-33841.29688
3.8125,-33840.87109
3.8203125,-33845.66406
3.828125,-33852.09766
3.8359375,-33857.14063
3.84375,-33858.62109
3.8515625,-33856.34766
3.859375,-33851.46875
3.8671875,-33845.85938
3.875,-33841.63672
3.8828125,-33839.84766
3.890625,-33840.82422
3.8984375,-33843.81641
3.90625,-33846.57813
3.9140625,-33847.03906
3.921875,-33842.09766
3.9296875,-33829.18359
3.9375,-33807.25391
3.9453125,-33776.76172
3.953125,-33741.4375
3.9609375,-33706.00781
3.96875,-33674.83984
3.9765625,-33650.21094
3.984375,-33630.75781
3.9921875,-33612.96094
4,-33593.25391
4.0078125,-33569.625
4.015625,-33543.88672
4.0234375,-33519.5
4.03125,-33500.27734
4.0390625,-33488.12891
4.046875,-33481.59766
4.0546875,-33478.11328
4.0625,-33474.07813
4.0703125,-33467.29688
4.078125,-33457.85547
4.0859375,-33446.78906
4.09375,-33436.61328
4.1015625,-33428.90234
4.109375,-33424.04297
4.1171875,-33421.42188
4.125,-33419.41406
4.1328125,-33416.84375
4.140625,-33413.38672
4.1484375,-33409.53516
4.15625,-33406.58594
4.1640625,-33404.92188
4.171875,-33404.27344
4.1796875,-33403.73828
4.1875,-33401.96094
4.1953125,-33399.50781
4.203125,-33397.45313
4.2109375,-33397.26563
4.21875,-33399.57813
4.2265625,-33402.22656
4.234375,-33402.11719
4.2421875,-33395.82031
4.25,-33382.42188
4.2578125,-33365.09766
4.265625,-33349.82422
4.2734375,-33343.0625
4.28125,-33348.21875
4.2890625,-33363.35547
4.296875,-33382.28125
4.3046875,-33396.75391
4.3125,-33401.01172
4.3203125,-33394.30859
4.328125,-33380.34375
4.3359375,-33366.73047
4.34375,-33359.91406
4.3515625,-33363.19141
4.359375,-33375.57031
4.3671875,-33391.58203
4.375,-33405.07422
4.3828125,-33410.90625
4.390625,-33407.75391
4.3984375,-33398.70703
4.40625,-33389.38672
4.4140625,-33385.35938
4.421875,-33389.11328
4.4296875,-33398.60547
4.4375,-33409.17188
4.4453125,-33415.46484
4.453125,-33414.89453
4.4609375,-33408.20703
4.46875,-33397.375
4.4765625,-33384.80859
4.484375,-33370.33203
4.4921875,-33352.45703
4.5,-33330.21094
4.5078125,-33304.29688
4.515625,-33277.62109
4.5234375,-33252.91797
4.53125,-33231.42188
4.5390625,-33212.16797
4.546875,-33192.79688
4.5546875,-33171.76172
4.5625,-33149.53125
4.5703125,-33128.03906
4.578125,-33109.72266
4.5859375,-33094.89453
4.59375,-33081.86719
4.6015625,-33067.56641
4.609375,-33048.71484
4.6171875,-33025.16797
4.625,-32999.07422
4.6328125,-32974.92969
4.640625,-32957.76172
4.6484375,-32949.89844
4.65625,-32950.72656
4.6640625,-32955.64063
4.671875,-32958.25
4.6796875,-32953.17578
4.6875,-32938.0625
4.6953125,-32914.79688
4.703125,-32888.5
4.7109375,-32864.80078
4.71875,-32848.67578
4.7265625,-32841.64063
4.734375,-32842.53125
4.7421875,-32847.95703
4.75,-32852.85938
4.7578125,-32853.625
4.765625,-32847.99219
4.7734375,-32836.87891
4.78125,-32824.50391
4.7890625,-32815.89063
4.796875,-32815.52734
4.8046875,-32823.88281
4.8125,-32837.14063
4.8203125,-32848.91797
4.828125,-32853.32031
4.8359375,-32848.26953
4.84375,-32836.36719
4.8515625,-32822.73047
4.859375,-32812.69922
4.8671875,-32807.94922
4.875,-32806.93359
4.8828125,-32806.42578
4.890625,-32803.33594
4.8984375,-32797.75781
4.90625,-32791.23828
4.9140625,-32785.88672
4.921875,-32783.00781
4.9296875,-32781.75391
4.9375,-32781.05078
4.9453125,-32779.75391
4.953125,-32777.67578
4.9609375,-32775.46094
4.96875,-32773.55469
4.9765625,-32772.02734
4.984375,-32770.58594
4.9921875,-32768.52734
5,-32766.1543
5.0078125,-32763.37305
5.015625,-32760.16016
5.0234375,-32755.94922
5.03125,-32748.88086
5.0390625,-32737.7207
5.046875,-32721.18359
5.0546875,-32699.14453
5.0625,-32673.0293
5.0703125,-32644.60547
5.078125,-32616.39063
5.0859375,-32590.04102
5.09375,-32566.27148
5.1015625,-32544.91797
5.109375,-32524.93555
5.1171875,-32505.14844
5.125,-32484.64453
5.1328125,-32462.48633
5.140625,-32439.11719
5.1484375,-32415.05078
5.15625,-32391.74023
5.1640625,-32370.99805
5.171875,-32353.58398
5.1796875,-32340.09961
5.1875,-32329.51758
5.1953125,-32320.50586
5.203125,-32312.61133
5.2109375,-32306.15234
5.21875,-32302.60156
5.2265625,-32302.79102
5.234375,-32305.79102
5.2421875,-32308.85547
5.25,-32308.23047
5.2578125,-32301.67188
5.265625,-32289.9707
5.2734375,-32276.42188
5.28125,-32266.24219
5.2890625,-32262.55273
5.296875,-32265.49805
5.3046875,-32272.23242
5.3125,-32277.87109
5.3203125,-32279.52539
5.328125,-32276.33984
5.3359375,-32270.05273
5.34375,-32263.66016
5.3515625,-32258.81445
5.359375,-32255.58398
5.3671875,-32252.35938
5.375,-32247.35352
5.3828125,-32240.36914
5.390625,-32232.87109
5.3984375,-32227.99023
5.40625,-32228.6582
5.4140625,-32235.52344
5.421875,-32247.35352
5.4296875,-32260.11133
5.4375,-32269.59961
5.4453125,-32273.2832
5.453125,-32270.75586
5.4609375,-32265.00586
5.46875,-32259.52734
5.4765625,-32257.0625
5.484375,-32258.73828
5.4921875,-32263.58594
5.5,-32270.39844
5.5078125,-32278.38281
5.515625,-32287.22461
5.5234375,-32296.55078
5.53125,-32304.39063
5.5390625,-32307.95117
5.546875,-32304.69922
5.5546875,-32293.70703
5.5625,-32277.8125
5.5703125,-32261.35352
5.578125,-32248.76758
5.5859375,-32242.41797
5.59375,-32240.96484
5.6015625,-32241.91602
5.609375,-32242.16016
5.6171875,-32240
5.625,-32235.63672
5.6328125,-32229.66406
5.640625,-32222.83594
5.6484375,-32215.5
5.65625,-32208.13477
5.6640625,-32202.19922
5.671875,-32199.43945
5.6796875,-32201.66797
5.6875,-32209.50977
5.6953125,-32221.26953
5.703125,-32234.79297
5.7109375,-32247.06445
5.71875,-32256.24219
5.7265625,-32262.32813
5.734375,-32266.14258
5.7421875,-32270.0332
5.75,-32275.57227
5.7578125,-32283.28125
5.765625,-32292.66602
5.7734375,-32302.06055
5.78125,-32310.11914
5.7890625,-32316.51172
5.796875,-32322.14258
5.8046875,-32328.90234
5.8125,-32337.66992
5.8203125,-32347.83984
5.828125,-32357.01953
5.8359375,-32361.79883
5.84375,-32361.13867
5.8515625,-32356.23242
5.859375,-32351.00781
5.8671875,-32350.0625
5.875,-32355.1875
5.8828125,-32365.34961
5.890625,-32376.14648
5.8984375,-32382.82031
5.90625,-32383.28516
5.9140625,-32378.64453
5.921875,-32372.75195
5.9296875,-32369.45117
5.9375,-32370.20508
5.9453125,-32373.89648
5.953125,-32377.25391
5.9609375,-32377.45898
5.96875,-32373.23242
5.9765625,-32364.21289
5.984375,-32351.47656
5.9921875,-32335.18945
6,-32315.49023
6.0078125,-32293.62109
6.015625,-32271.44922
6.0234375,-32252.72852
6.03125,-32240.29102
6.0390625,-32234.70508
6.046875,-32233.74609
6.0546875,-32232.60547
6.0625,-32226.61719
6.0703125,-32213.39258
6.078125,-32193.88086
6.0859375,-32172.35938
6.09375,-32153.76758
6.1015625,-32142.38867
6.109375,-32140.21289
6.1171875,-32146.1582
6.125,-32158.2207
6.1328125,-32172.98438
6.140625,-32187.32617
6.1484375,-32199.13477
6.15625,-32206.78906
6.1640625,-32210.82617
6.171875,-32212.67773
6.1796875,-32214.51563
6.1875,-32218.38086
6.1953125,-32224.41211
6.203125,-32230.97656
6.2109375,-32235.27148
6.21875,-32235.08984
6.2265625,-32231.13867
6.234375,-32226.6543
6.2421875,-32226.62305
6.25,-32234.75
6.2578125,-32250.33789
6.265625,-32269.2793
6.2734375,-32284.61328
6.28125,-32290.6582
6.2890625,-32285.97266
6.296875,-32273.05664
6.3046875,-32257.85742
6.3125,-32245.74414
6.3203125,-32239.73242
6.328125,-32240.17773
6.3359375,-32245.51367
6.34375,-32254.14844
6.3515625,-32265.02344
6.359375,-32277.0293
6.3671875,-32288.89063
6.375,-32298.22461
6.3828125,-32303.21875
6.390625,-32303.67773
6.3984375,-32300.96484
6.40625,-32298.67969
6.4140625,-32299.31055
6.421875,-32303.20313
6.4296875,-32308.3418
6.4375,-32310.54297
6.4453125,-32306.95898
6.453125,-32296.75195
6.4609375,-32281.99609
6.46875,-32266.51563
6.4765625,-32253.55664
6.484375,-32244.41602
6.4921875,-32237.86133
6.5,-32230.71875
6.5078125,-32220.31836
6.515625,-32205.13086
6.5234375,-32186.11133
6.53125,-32165.96875
6.5390625,-32146.94531
6.546875,-32130.92383
6.5546875,-32117.2832
6.5625,-32103.99219
6.5703125,-32089.02148
6.578125,-32070.73047
6.5859375,-32049.85547
6.59375,-32028.3457
6.6015625,-32008.98633
6.609375,-31994.38086
6.6171875,-31985.58984
6.625,-31981.95313
6.6328125,-31981.22266
6.640625,-31980.0293
6.6484375,-31976.26367
6.65625,-31969.09961
6.6640625,-31960.26953
6.671875,-31953.07617
6.6796875,-31949.95117
6.6875,-31952.35352
6.6953125,-31958.77344
6.703125,-31966.38086
6.7109375,-31972.93164
6.71875,-31977.24414
6.7265625,-31980.5293
6.734375,-31984.30664
6.7421875,-31989.44531
6.75,-31995.71289
6.7578125,-32001.95508
6.765625,-32007.45313
6.7734375,-32012.50781
6.78125,-32017.56641
6.7890625,-32023.21484
6.796875,-32028.2168
6.8046875,-32030.75
6.8125,-32029.50391
6.8203125,-32024.11133
6.828125,-32016.81445
6.8359375,-32009.74219
6.84375,-32003.87109
6.8515625,-31998.39648
6.859375,-31990.44727
6.8671875,-31978.11328
6.875,-31961.15039
6.8828125,-31941.49805
6.890625,-31921.91016
6.8984375,-31903.53906
6.90625,-31885.25
6.9140625,-31864.51367
6.921875,-31839.0625
6.9296875,-31809.92383
6.9375,-31780.11133
6.9453125,-31753.62695
6.953125,-31732.88477
6.9609375,-31716.80273
6.96875,-31703.52539
6.9765625,-31691.5625
6.984375,-31682.60938
6.9921875,-31681.61523
7,-31693.71094
7.0078125,-31721.44336
7.015625,-31762.48438
7.0234375,-31810.31055
7.03125,-31857.07617
7.0390625,-31896.29102
7.046875,-31924.86523
7.0546875,-31942.85938
7.0625,-31951.49414
7.0703125,-31953.10352
7.078125,-31949.47461
7.0859375,-31943.25391
7.09375,-31938.14258
7.1015625,-31937.66602
7.109375,-31945.25977
7.1171875,-31961.51172
7.125,-31984.2793
7.1328125,-32009.71484
7.140625,-32033.26563
7.1484375,-32052.21094
7.15625,-32066.05078
7.1640625,-32076.32031
7.171875,-32085.41016
7.1796875,-32094.26758
7.1875,-32101.43555
7.1953125,-32102.21875
7.203125,-32088.88086
7.2109375,-32053.71875
7.21875,-31990.29492
7.2265625,-31897.21289
7.234375,-31779.75391
7.2421875,-31649.29883
7.25,-31522.52148
7.2578125,-31415.74805
7.265625,-31340.47461
7.2734375,-31299.81055
7.28125,-31287.16406
7.2890625,-31290.06836
7.296875,-31295.48438
7.3046875,-31295.43945
7.3125,-31289.74219
7.3203125,-31283.81836
7.328125,-31284.67969
7.3359375,-31296.03906
7.34375,-31315.92773
7.3515625,-31339.56055
7.359375,-31361.52344
7.3671875,-31379.75586
7.375,-31396.14258
7.3828125,-31414.08984
7.390625,-31437.6543
7.3984375,-31468.73633
7.40625,-31507.61328
7.4140625,-31553.87891
7.421875,-31606.24414
7.4296875,-31663.125
7.4375,-31722.11328
7.4453125,-31780.58984
7.453125,-31836.99219
7.4609375,-31890.98438
7.46875,-31943.63477
7.4765625,-31995.59375
7.484375,-32045.10547
7.4921875,-32089.25781
7.5,-32124.36133
7.5078125,-32149.32031
7.515625,-32166.91211
7.5234375,-32181.74414
7.53125,-32198.58984
7.5390625,-32217.83203
7.546875,-32235.13672
7.5546875,-32243.90039
7.5625,-32238.60547
7.5703125,-32218.93164
7.578125,-32190.0332
7.5859375,-32160.31055
7.59375,-32137.95508
7.6015625,-32127.44727
7.609375,-32129.63086
7.6171875,-32142.83789
7.625,-32164.38281
7.6328125,-32193.06055
7.640625,-32227.56445
7.6484375,-32266.64258
7.65625,-32308.88281
7.6640625,-32352.41602
7.671875,-32397.02734
7.6796875,-32442.78906
7.6875,-32489.55664
7.6953125,-32536.03516
7.703125,-32579.06445
7.7109375,-32615.57813
7.71875,-32644.28125
7.7265625,-32666.79102
7.734375,-32686.98828
7.7421875,-32708.07227
7.75,-32730.9707
7.7578125,-32753.76172
7.765625,-32772.75391
7.7734375,-32786.33984
7.78125,-32794.73438
7.7890625,-32800.24219
7.796875,-32805.48438
7.8046875,-32811.33984
7.8125,-32818.82031
7.8203125,-32829.21094
7.828125,-32845.47266
7.8359375,-32871.57813
7.84375,-32909.41406
7.8515625,-32957.19531
7.859375,-33009.04297
7.8671875,-33057.53906
7.875,-33097.8125
7.8828125,-33129.50781
7.890625,-33157.33594
7.8984375,-33188.10938
7.90625,-33226.40234
7.9140625,-33273.48828
7.921875,-33325.78906
7.9296875,-33377.70313
7.9375,-33424.63672
7.9453125,-33464.09766
7.953125,-33497.69531
7.9609375,-33528.70703
7.96875,-33560.81641
7.9765625,-33596.85547
7.984375,-33637.51563
7.9921875,-33682.27344
8,-33729.64063
8.0078125,-33778.60938
8.015625,-33828.48828
8.0234375,-33878.98047
8.03125,-33930.64453
8.0390625,-33984.45703
8.046875,-34040.73047
8.0546875,-34100.04688
8.0625,-34161.04297
8.0703125,-34221.14063
8.078125,-34277.27344
8.0859375,-34326.10547
8.09375,-34366.88281
8.1015625,-34400.78516
8.109375,-34430.99219
8.1171875,-34461.26953
8.125,-34493.90625
8.1328125,-34529.05859
8.140625,-34564.60938
8.1484375,-34596.98047
8.15625,-34623.39063
8.1640625,-34642.42578
8.171875,-34655.41797
8.1796875,-34665.625
8.1875,-34676.13281
8.1953125,-34689.62109
8.203125,-34705.83594
8.2109375,-34722.82813
8.21875,-34738.80078
8.2265625,-34752.81641
8.234375,-34766.94531
8.2421875,-34783.82422
8.25,-34805.13672
8.2578125,-34829.79297
8.265625,-34853.875
8.2734375,-34873.23438
8.28125,-34886.27734
8.2890625,-34895.21875
8.296875,-34905.71484
8.3046875,-34922.76563
8.3125,-34948.42969
8.3203125,-34980.36719
8.328125,-35012.89844
8.3359375,-35041.92188
8.34375,-35066.12891
8.3515625,-35088.19141
8.359375,-35112.63672
8.3671875,-35141.40234
8.375,-35173.02734
8.3828125,-35201.90625
8.390625,-35221.79688
8.3984375,-35229.625
8.40625,-35227.27344
8.4140625,-35221.15234
8.421875,-35218.76563
8.4296875,-35224.40625
8.4375,-35237.91016
8.4453125,-35254.09375
8.453125,-35266.95313
8.4609375,-35273.23828
8.46875,-35273.9375
8.4765625,-35275.32422
8.484375,-35284.26172
8.4921875,-35305.18359
8.5,-35338.21875
8.5078125,-35377.25
8.515625,-35415.93359
8.5234375,-35449.10547
8.53125,-35476.11328
8.5390625,-35500.76953
8.546875,-35528.54297
8.5546875,-35563.40234
8.5625,-35605.375
8.5703125,-35649.94531
8.578125,-35691.31641
8.5859375,-35724.15234
8.59375,-35746.92578
8.6015625,-35762.12109
8.609375,-35773.91406
8.6171875,-35787.4375
8.625,-35804.90625
8.6328125,-35825.48047
8.640625,-35845.99609
8.6484375,-35861.75
8.65625,-35869.95313
8.6640625,-35870.15625
8.671875,-35865.19531
8.6796875,-35860.04297
8.6875,-35859.34375
8.6953125,-35865.67969
8.703125,-35878.41016
8.7109375,-35893.95313
8.71875,-35908.87891
8.7265625,-35920.64063
8.734375,-35929.57422
8.7421875,-35938.15234
8.75,-35948.57422
8.7578125,-35962.89844
8.765625,-35980.89063
8.7734375,-36001.49609
8.78125,-36024.13672
8.7890625,-36048.21484
8.796875,-36074.20313
8.8046875,-36101.65625
8.8125,-36129.09766
8.8203125,-36154.44141
8.828125,-36175.96094
8.8359375,-36193.92969
8.84375,-36210.94922
8.8515625,-36230.20703
8.859375,-36254.82031
8.8671875,-36284.63672
8.875,-36316.96094
8.8828125,-36347.77734
8.890625,-36373.07813
8.8984375,-36392.32031
8.90625,-36407.08594
8.9140625,-36420.58203
8.921875,-36436.16016
8.9296875,-36455.14844
8.9375,-36477.60938
8.9453125,-36502.22266
8.953125,-36527.35547
8.9609375,-36551.70313
8.96875,-36574.21875
8.9765625,-36594.75391
8.984375,-36614.40234
8.9921875,-36634.98438
9,-36659.89844
9.0078125,-36691.03125
9.015625,-36728.69531
9.0234375,-36770.56641
9.03125,-36811.63281
9.0390625,-36847.76953
9.046875,-36876.17578
9.0546875,-36897.08984
9.0625,-36913.52344
9.0703125,-36928.66797
9.078125,-36944.77344
9.0859375,-36961.46484
9.09375,-36976.23438
9.1015625,-36986.07031
9.109375,-36988.77734
9.1171875,-36984.82813
9.125,-36977
9.1328125,-36968.66797
9.140625,-36963.35547
9.1484375,-36961.84375
9.15625,-36963.14453
9.1640625,-36965.5
9.171875,-36967.17188
9.1796875,-36969.06641
9.1875,-36972.67188
9.1953125,-36979.25391
9.203125,-36988.69141
9.2109375,-36998.52344
9.21875,-37006.20313
9.2265625,-37010.59375
9.234375,-37013.35156
9.2421875,-37018.50391
9.25,-37029.68359
9.2578125,-37048.45313
9.265625,-37073.08984
9.2734375,-37099.00781
9.28125,-37122.53906
9.2890625,-37141.23828
9.296875,-37155.41016
9.3046875,-37167.12109
9.3125,-37177.75391
9.3203125,-37188.86328
9.328125,-37200.69922
9.3359375,-37213.52734
9.34375,-37228.25391
9.3515625,-37245.18359
9.359375,-37264.05078
9.3671875,-37283.22656
9.375,-37300.34766
9.3828125,-37314.08594
9.390625,-37324.61328
9.3984375,-37334.32422
9.40625,-37346.39453
9.4140625,-37362.30469
9.421875,-37382.21875
9.4296875,-37403.58984
9.4375,-37423.59766
9.4453125,-37440.84375
9.453125,-37455.12891
9.4609375,-37468.52344
9.46875,-37482.37109
9.4765625,-37496.76953
9.484375,-37510.90625
9.4921875,-37523.47266
9.5,-37534.67188
9.5078125,-37546.19141
9.515625,-37560.09375
9.5234375,-37577.53906
9.53125,-37596.88281
9.5390625,-37614.90625
9.546875,-37628.40625
9.5546875,-37635.5
9.5625,-37638.09375
9.5703125,-37639.03125
9.578125,-37640.87109
9.5859375,-37644.11719
9.59375,-37645.88281
9.6015625,-37643.1875
9.609375,-37633.87109
9.6171875,-37618.82031
9.625,-37602.17578
9.6328125,-37588.91797
9.640625,-37583.07813
9.6484375,-37585.8125
9.65625,-37595.03906
9.6640625,-37607.21484
9.671875,-37618.30859
9.6796875,-37626.25
9.6875,-37631.23828
9.6953125,-37634.70313
9.703125,-37639.88672
9.7109375,-37648.9375
9.71875,-37662.82813
9.7265625,-37681.32422
9.734375,-37702.09766
9.7421875,-37723.375
9.75,-37743.47656
9.7578125,-37761.96484
9.765625,-37779.81641
9.7734375,-37797.90234
9.78125,-37816.50391
9.7890625,-37834.53125
9.796875,-37849.91797
9.8046875,-37861.38672
9.8125,-37868.88672
9.8203125,-37874.64844
9.828125,-37881.91797
9.8359375,-37892.39063
9.84375,-37906.51563
9.8515625,-37921.62891
9.859375,-37934.38281
9.8671875,-37942.83984
9.875,-37946.64844
9.8828125,-37948.37109
9.890625,-37950.66406
9.8984375,-37955.44922
9.90625,-37963.30859
9.9140625,-37973.64844
9.921875,-37986.02734
9.9296875,-38000.40234
9.9375,-38016.48438
9.9453125,-38033.73047
9.953125,-38050.14844
9.9609375,-38063.92578
9.96875,-38074.51953
9.9765625,-38082.69922
9.984375,-38091.89844
9.9921875,-38104.92188
10,-38123.05469
10.0078125,-38145.70703
10.015625,-38169.25781
10.0234375,-38190.23047
10.03125,-38205.45313
10.0390625,-38213.52344
10.046875,-38215.19141
10.0546875,-38212.56641
10.0625,-38208.80469
10.0703125,-38207.07813
10.078125,-38208.87891
10.0859375,-38214.33984
10.09375,-38220.67969
10.1015625,-38224.36719
10.109375,-38222.6875
10.1171875,-38214.74219
10.125,-38203.80859
10.1328125,-38194.57813
10.140625,-38191.86719
10.1484375,-38198.84766
10.15625,-38214.88672
10.1640625,-38237.60156
10.171875,-38262.92188
10.1796875,-38287.29688
10.1875,-38308.60547
10.1953125,-38326.12891
10.203125,-38340.64453
10.2109375,-38353.83594
10.21875,-38367.23438
10.2265625,-38382.83203
10.234375,-38400.9375
10.2421875,-38420.97266
10.25,-38441.29688
10.2578125,-38458.98828
10.265625,-38472.60938
10.2734375,-38481.38281
10.28125,-38486.25391
10.2890625,-38489.75391
10.296875,-38493.88672
10.3046875,-38500.4375
10.3125,-38509.32813
10.3203125,-38519.44922
10.328125,-38529.69922
10.3359375,-38539.63281
10.34375,-38550.11328
10.3515625,-38562.60156
10.359375,-38577.42969
10.3671875,-38594.22266
10.375,-38610.40625
10.3828125,-38623.36719
10.390625,-38631.74219
10.3984375,-38635.39063
10.40625,-38637.03906
10.4140625,-38639.39453
10.421875,-38644.42969
10.4296875,-38652.67578
10.4375,-38662.26172
10.4453125,-38670.86719
10.453125,-38676.42188
10.4609375,-38678.5625
10.46875,-38679.13281
10.4765625,-38681.08203
10.484375,-38687.22266
10.4921875,-38698.66797
10.5,-38713.42188
10.5078125,-38728.8125
10.515625,-38741.40234
10.5234375,-38750.0625
10.53125,-38756.21484
10.5390625,-38761.74609
10.546875,-38768.90625
10.5546875,-38777.25
10.5625,-38784.78906
10.5703125,-38789.91797
10.578125,-38792.31641
10.5859375,-38794.23438
10.59375,-38798.57031
10.6015625,-38807.15234
10.609375,-38819.83594
10.6171875,-38834.32031
10.625,-38848.41797
10.6328125,-38861.09375
10.640625,-38872.09766
10.6484375,-38882.5
10.65625,-38892.01172
10.6640625,-38899.88281
10.671875,-38905.51953
10.6796875,-38908.67578
10.6875,-38911.63672
10.6953125,-38916.62109
10.703125,-38925.10938
10.7109375,-38937.00391
10.71875,-38949.6875
10.7265625,-38959.90234
10.734375,-38964.53125
10.7421875,-38961.87891
10.75,-38952.32031
10.7578125,-38937.48438
10.765625,-38920.32813
10.7734375,-38903.97656
10.78125,-38890.15625
10.7890625,-38879.91406
10.796875,-38871.65234
10.8046875,-38862.84375
10.8125,-38851.11719
10.8203125,-38834.69141
10.828125,-38814.75781
10.8359375,-38793.43359
10.84375,-38773.25781
10.8515625,-38756.38281
10.859375,-38743.12891
10.8671875,-38733.16797
10.875,-38725.58203
10.8828125,-38719.48438
10.890625,-38714.39453
10.8984375,-38709.49219
10.90625,-38704.44922
10.9140625,-38699.44922
10.921875,-38694.86328
10.9296875,-38692.69141
10.9375,-38694.05859
10.9453125,-38699.48828
10.953125,-38708.44141
10.9609375,-38718.69922
10.96875,-38728.97266
10.9765625,-38737.96484
10.984375,-38745.22656
10.9921875,-38751.0625
11,-38755.39063
11.0078125,-38758.54297
11.015625,-38761.07422
11.0234375,-38764.01172
11.03125,-38768.86328
11.0390625,-38775.96094
11.046875,-38784.57422
11.0546875,-38792.6875
11.0625,-38797.47266
11.0703125,-38798.37891
11.078125,-38796.26172
11.0859375,-38793.91016
11.09375,-38794.55469
11.1015625,-38799.14844
11.109375,-38807.47266
11.1171875,-38817.03516
11.125,-38825.23438
11.1328125,-38830.92969
11.140625,-38834.10938
11.1484375,-38836.03516
11.15625,-38838.03906
11.1640625,-38840.95703
11.171875,-38845.58984
11.1796875,-38852.1875
11.1875,-38861.06641
11.1953125,-38871.80469
11.203125,-38882.04688
11.2109375,-38889.53516
11.21875,-38891.82813
11.2265625,-38889.02344
11.234375,-38884.625
11.2421875,-38883.31641
11.25,-38889.91797
11.2578125,-38905.11719
11.265625,-38925.15625
11.2734375,-38944.05859
11.28125,-38956.36719
11.2890625,-38960.85547
11.296875,-38960.74219
11.3046875,-38961.30469
11.3125,-38966.90625
11.3203125,-38977.86719
11.328125,-38991.4375
11.3359375,-39003.75391
11.34375,-39011.71094
11.3515625,-39015.53125
11.359375,-39016.00781
11.3671875,-39013.61719
11.375,-39007.69922
11.3828125,-38996.06641
11.390625,-38978.69531
11.3984375,-38957.53516
11.40625,-38936.6875
11.4140625,-38920.65234
11.421875,-38911.22266
11.4296875,-38907.12891
11.4375,-38904.70703
11.4453125,-38900.07422
11.453125,-38891.63281
11.4609375,-38879.78516
11.46875,-38866.74219
11.4765625,-38854.66406
11.484375,-38843.85938
11.4921875,-38834.5625
11.5,-38826.03516
11.5078125,-38818.14453
11.515625,-38811.98047
11.5234375,-38808.13672
11.53125,-38807.96484
11.5390625,-38811.73438
11.546875,-38819.13672
11.5546875,-38829.60938
11.5625,-38841.46094
11.5703125,-38852.53125
11.578125,-38860.57813
11.5859375,-38864.19922
11.59375,-38864.66797
11.6015625,-38864.90234
11.609375,-38868.94922
11.6171875,-38879.05469
11.625,-38892.84766
11.6328125,-38905.28516
11.640625,-38909.58984
11.6484375,-38902.25
11.65625,-38885.98047
11.6640625,-38867.91797
11.671875,-38857.52734
11.6796875,-38860.10938
11.6875,-38874.62891
11.6953125,-38894.60156
11.703125,-38911.96484
11.7109375,-38921.9375
11.71875,-38925
11.7265625,-38925.23047
11.734375,-38927.40234
11.7421875,-38933.11328
11.75,-38941.15625
11.7578125,-38949.19922
11.765625,-38955.35938
11.7734375,-38960.74219
11.78125,-38966.55078
11.7890625,-38973.15625
11.796875,-38979.60547
11.8046875,-38983.49219
11.8125,-38984.6875
11.8203125,-38984.87891
11.828125,-38987.38281
11.8359375,-38994.78906
11.84375,-39006.63672
11.8515625,-39019.86719
11.859375,-39030.72656
11.8671875,-39037.12891
11.875,-39040.50781
11.8828125,-39043.63281
11.890625,-39048.94922
11.8984375,-39056.33203
11.90625,-39062.24219
11.9140625,-39063.57422
11.921875,-39058.24609
11.9296875,-39047.34375
11.9375,-39034.5625
11.9453125,-39022.88281
11.953125,-39014.23438
11.9609375,-39007.41406
11.96875,-38999.62891
11.9765625,-38988.14063
11.984375,-38971.32813
11.9921875,-38949.69922
12,-38925.46875
12.0078125,-38901.64063
12.015625,-38881.29297
12.0234375,-38865.66406
12.03125,-38854.36719
12.0390625,-38845.42188
12.046875,-38835.63281
12.0546875,-38824.11719
12.0625,-38811.49219
12.0703125,-38800.38672
12.078125,-38793.85156
12.0859375,-38792.17188
12.09375,-38793.64063
12.1015625,-38794.40234
12.109375,-38791.6875
12.1171875,-38785.95313
12.125,-38780.67578
12.1328125,-38780.58984
12.140625,-38788.58203
12.1484375,-38803.04688
12.15625,-38819.57422
12.1640625,-38831.99219
12.171875,-38836.6875
12.1796875,-38834.08984
12.1875,-38827.46875
12.1953125,-38822.36328
12.203125,-38822.10156
12.2109375,-38827.04688
12.21875,-38835.12109
12.2265625,-38842.34766
12.234375,-38846.28906
12.2421875,-38846.09375
12.25,-38842.96875
12.2578125,-38839.30859
12.265625,-38837.05078
12.2734375,-38837.35156
12.28125,-38840.46875
12.2890625,-38845.70313
12.296875,-38853.03125
12.3046875,-38861.68359
12.3125,-38870.94141
12.3203125,-38879.86328
12.328125,-38886.47266
12.3359375,-38890.32031
12.34375,-38891.22266
12.3515625,-38890.19531
12.359375,-38889.12891
12.3671875,-38888.77344
12.375,-38889.80469
12.3828125,-38891.75781
12.390625,-38894.33203
12.3984375,-38897.97656
12.40625,-38903.26563
12.4140625,-38910.44922
12.421875,-38918.48438
12.4296875,-38924.48047
12.4375,-38926.08203
12.4453125,-38921.59375
12.453125,-38912.14063
12.4609375,-38901.20313
12.46875,-38892.15234
12.4765625,-38888.20313
12.484375,-38889.35156
12.4921875,-38893.29688
12.5,-38896.93359
12.5078125,-38896.85938
12.515625,-38892.27344
12.5234375,-38884.21484
12.53125,-38875.61719
12.5390625,-38870.08984
12.546875,-38869.95703
12.5546875,-38875.43359
12.5625,-38884.33984
12.5703125,-38892.78516
12.578125,-38898.44141
12.5859375,-38900.58594
12.59375,-38901.33203
12.6015625,-38903.78516
12.609375,-38908.97266
12.6171875,-38916.3125
12.625,-38922.58203
12.6328125,-38925.06641
12.640625,-38924.03516
12.6484375,-38921.99219
12.65625,-38923.13672
12.6640625,-38929.29688
12.671875,-38938.71875
12.6796875,-38947.03516
12.6875,-38949.70313
12.6953125,-38945.42969
12.703125,-38937.19531
12.7109375,-38930.03125
12.71875,-38929.35156
12.7265625,-38936.98047
12.734375,-38951.54297
12.7421875,-38969.69922
12.75,-38986.92188
12.7578125,-39000.81641
12.765625,-39009.67969
12.7734375,-39013.26172
12.78125,-39013.05078
12.7890625,-39011.23438
12.796875,-39011.19922
12.8046875,-39015.38672
12.8125,-39024.03906
12.8203125,-39034.79297
12.828125,-39043.39844
12.8359375,-39046.49219
12.84375,-39043.76172
12.8515625,-39037.60547
12.859375,-39032.76563
12.8671875,-39031.96484
12.875,-39035.24219
12.8828125,-39040.15234
12.890625,-39042.98047
12.8984375,-39042.9375
12.90625,-39041.37109
12.9140625,-39041.52734
12.921875,-39046.63281
12.9296875,-39057.12109
12.9375,-39071.05469
12.9453125,-39084.59766
12.953125,-39094.21094
12.9609375,-39098.60938
12.96875,-39098.84375
12.9765625,-39098.32422
12.984375,-39100.72266
12.9921875,-39107.36719
13,-39117.57422
13.0078125,-39127.28125
13.015625,-39132.00391
13.0234375,-39129.28125
13.03125,-39119.44141
13.0390625,-39107.28125
13.046875,-39098.3125
13.0546875,-39096.54688
13.0625,-39102.82422
13.0703125,-39113.86719
13.078125,-39125.10938
13.0859375,-39132.73438
13.09375,-39135.61719
13.1015625,-39135.68359
13.109375,-39135.82422
13.1171875,-39138.60547
13.125,-39144.51953
13.1328125,-39151.25391
13.140625,-39156.1875
13.1484375,-39156.10156
13.15625,-39149.66016
13.1640625,-39137.79297
13.171875,-39122.14844
13.1796875,-39105.78516
13.1875,-39089.99219
13.1953125,-39074.32813
13.203125,-39057.08984
13.2109375,-39035.625
13.21875,-39008.6875
13.2265625,-38976.91797
13.234375,-38942.98828
13.2421875,-38910.78906
13.25,-38883.30078
13.2578125,-38861.96875
13.265625,-38846.14844
13.2734375,-38832.86719
13.28125,-38819.5
13.2890625,-38803.24609
13.296875,-38782.89844
13.3046875,-38759.09375
13.3125,-38733.05859
13.3203125,-38707.65625
13.328125,-38685.03906
13.3359375,-38666.71484
13.34375,-38653.66016
13.3515625,-38645.63281
13.359375,-38642.23438
13.3671875,-38642.53906
13.375,-38645.125
13.3828125,-38648.35156
13.390625,-38649.84766
13.3984375,-38647.84766
13.40625,-38641.72656
13.4140625,-38631.73828
13.421875,-38620.32422
13.4296875,-38609.39453
13.4375,-38600.17578
13.4453125,-38592.69531
13.453125,-38585.03906
13.4609375,-38576.34375
13.46875,-38566.26953
13.4765625,-38556.11719
13.484375,-38548.51953
13.4921875,-38545.26172
13.5,-38546.61328
13.5078125,-38550.38672
13.515625,-38552.71484
13.5234375,-38550.20703
13.53125,-38541.19531
13.5390625,-38527.57813
13.546875,-38514
13.5546875,-38505.11719
13.5625,-38504.52734
13.5703125,-38511.19922
13.578125,-38520.70313
13.5859375,-38527.44141
13.59375,-38526.86719
13.6015625,-38519.46875
13.609375,-38509.22656
13.6171875,-38501.86719
13.625,-38501.85156
13.6328125,-38509.35156
13.640625,-38520.94141
13.6484375,-38531.62891
13.65625,-38537.66406
13.6640625,-38538.92969
13.671875,-38537.80078
13.6796875,-38538.01953
13.6875,-38542.20703
13.6953125,-38549.98438
13.703125,-38560.01953
13.7109375,-38569.55078
13.71875,-38576.64453
13.7265625,-38580.8125
13.734375,-38581.50391
13.7421875,-38579.30859
13.75,-38574.01563
13.7578125,-38565.41797
13.765625,-38553.95703
13.7734375,-38540.42188
13.78125,-38526.58203
13.7890625,-38514.54688
13.796875,-38506.16406
13.8046875,-38502.86328
13.8125,-38504.41016
13.8203125,-38509.54297
13.828125,-38516.08594
13.8359375,-38520.82813
13.84375,-38522.25391
13.8515625,-38519.51563
13.859375,-38513.6875
13.8671875,-38507.5
13.875,-38503.25
13.8828125,-38503.23438
13.890625,-38507.55469
13.8984375,-38514.54688
13.90625,-38521.88281
13.9140625,-38527.11328
13.921875,-38529.32422
13.9296875,-38529.28516
13.9375,-38528.68359
13.9453125,-38529.58594
13.953125,-38532.35547
13.9609375,-38535.98047
13.96875,-38538.41406
13.9765625,-38537.05859
13.984375,-38532.11719
13.9921875,-38525.51563
14,-38521.32422
14.0078125,-38524.17578
14.015625,-38535.57813
14.0234375,-38554.00781
14.03125,-38573.62109
14.0390625,-38587.25391
14.046875,-38590.02734
14.0546875,-38581.80078
14.0625,-38568.02344
14.0703125,-38556.96484
14.078125,-38555.1875
14.0859375,-38564.53906
14.09375,-38580.51953
14.1015625,-38595.67578
14.109375,-38603.77344
14.1171875,-38602.45313
14.125,-38595.625
14.1328125,-38589.32422
14.140625,-38588.78125
14.1484375,-38595.81641
14.15625,-38607.26953
14.1640625,-38618.48828
14.171875,-38624.92578
14.1796875,-38625.03125
14.1875,-38620.91016
14.1953125,-38616.72656
14.203125,-38616.94141
14.2109375,-38623.85547
14.21875,-38636.01953
14.2265625,-38649.48047
14.234375,-38658.33594
14.2421875,-38658.21094
14.25,-38648.03906
14.2578125,-38629.66406
14.265625,-38608.14844
14.2734375,-38587.52734
14.28125,-38569.57813
14.2890625,-38553.52344
14.296875,-38535.98047
14.3046875,-38514.76953
14.3125,-38489.14063
14.3203125,-38460.85156
14.328125,-38433.17188
14.3359375,-38408.63281
14.34375,-38387.92969
14.3515625,-38369.02734
14.359375,-38347.29688
14.3671875,-38318.72656
14.375,-38281.375
14.3828125,-38239.3125
14.390625,-38203.61719
14.3984375,-38189.86328
14.40625,-38215.50781
14.4140625,-38292.00391
14.421875,-38421.02734
14.4296875,-38593.71094
14.4375,-38792.64453
14.4453125,-38999.26172
14.453125,-39197.91016
14.4609375,-39379.17578
14.46875,-39539.52734
14.4765625,-39678.89844
14.484375,-39799.48047
14.4921875,-39905.25391
14.5,-40001.17969
14.5078125,-40095.61719
14.515625,-40193.74219
14.5234375,-40297.51172
14.53125,-40403.3125
14.5390625,-40502.12891
14.546875,-40585.10547
14.5546875,-40645.96094
14.5625,-40684.20313
14.5703125,-40704.55469
14.578125,-40712.99219
14.5859375,-40714.62109
14.59375,-40711.30859
14.6015625,-40702.75781
14.609375,-40688.61719
14.6171875,-40669.63672
14.625,-40648.38672
14.6328125,-40628.22266
14.640625,-40611.48828
14.6484375,-40600.24609
14.65625,-40594.68359
14.6640625,-40594.53516
14.671875,-40599.25391
14.6796875,-40606.96875
14.6875,-40616.72656
14.6953125,-40627.09375
14.703125,-40637.62109
14.7109375,-40649.37891
14.71875,-40663.53906
14.7265625,-40681.39453
14.734375,-40702.73438
14.7421875,-40725.875
14.75,-40748.4375
14.7578125,-40767.91016
14.765625,-40782.65625
14.7734375,-40791.92969
14.78125,-40794.60938
14.7890625,-40790.41406
14.796875,-40778.33203
14.8046875,-40758.56641
14.8125,-40733.21094
14.8203125,-40705.46484
14.828125,-40680.79297
14.8359375,-40663.57813
14.84375,-40656.14063
14.8515625,-40657.94531
14.859375,-40664.83984
14.8671875,-40671.42969
14.875,-40672.87891
14.8828125,-40667.16016
14.890625,-40656.39844
14.8984375,-40645.36719
14.90625,-40639.78125
14.9140625,-40643.01953
14.921875,-40653.66797
14.9296875,-40667.17969
14.9375,-40676.42969
14.9453125,-40676.23047
14.953125,-40665.78516
14.9609375,-40648.15625
14.96875,-40630.32422
14.9765625,-40618.26953
14.984375,-40615.02344
14.9921875,-40620.13672
15,-40630.03125
15.0078125,-40641.49219
15.015625,-40652.67969
15.0234375,-40663.72656
15.03125,-40675.84375
15.0390625,-40688.95703
15.046875,-40701.78516
15.0546875,-40712.24609
15.0625,-40718.33203
15.0703125,-40720.84766
15.078125,-40721.38281
15.0859375,-40722.02734
15.09375,-40723.95703
15.1015625,-40725.94141
15.109375,-40727.28125
15.1171875,-40727.48438
15.125,-40727.8125
15.1328125,-40730.96875
15.140625,-40738.5
15.1484375,-40750.07813
15.15625,-40762.80469
15.1640625,-40772.625
15.171875,-40777.05469
15.1796875,-40776.0625
15.1875,-40773.01172
15.1953125,-40772.61328
15.203125,-40777.75
15.2109375,-40789.22266
15.21875,-40803.77344
15.2265625,-40816.87891
15.234375,-40825.36719
15.2421875,-40828.27344
15.25,-40828.83594
15.2578125,-40831.04297
15.265625,-40837.72656
15.2734375,-40849.18359
15.28125,-40862.52344
15.2890625,-40874.44531
15.296875,-40883.23828
15.3046875,-40889.97656
15.3125,-40898.07422
15.3203125,-40910.14453
15.328125,-40926.53125
15.3359375,-40944.54297
15.34375,-40959.26953
15.3515625,-40968.15234
15.359375,-40971.19531
15.3671875,-40972.22656
15.375,-40976.88281
15.3828125,-40988.65234
15.390625,-41008.55078
15.3984375,-41033.25391
15.40625,-41057.5
15.4140625,-41076.95703
15.421875,-41089.39453
15.4296875,-41095.98047
15.4375,-41099.85156
15.4453125,-41104.32031
15.453125,-41111.66797
15.4609375,-41121.6875
15.46875,-41132.91406
15.4765625,-41143.46094
15.484375,-41151.50391
15.4921875,-41157.59375
15.5,-41162.61328
15.5078125,-41168.07813
15.515625,-41175.28516
15.5234375,-41183.93359
15.53125,-41194.15625
15.5390625,-41205.45703
15.546875,-41217.69141
15.5546875,-41231.20313
15.5625,-41245.65625
15.5703125,-41260.29688
15.578125,-41273.82031
15.5859375,-41284.79297
15.59375,-41292.72656
15.6015625,-41297.33594
15.609375,-41299
15.6171875,-41297.75781
15.625,-41292.32031
15.6328125,-41281.97266
15.640625,-41265.41406
15.6484375,-41242.34375
15.65625,-41213.95313
15.6640625,-41181.50391
15.671875,-41147.84766
15.6796875,-41115.33203
15.6875,-41085.99219
15.6953125,-41061.45703
15.703125,-41041.58984
15.7109375,-41024.98438
15.71875,-41008.94922
15.7265625,-40990.35547
15.734375,-40967.67578
15.7421875,-40941.22266
15.75,-40914.06641
15.7578125,-40890.63281
15.765625,-40874.06641
15.7734375,-40866.23438
15.78125,-40865.22656
15.7890625,-40867.08594
15.796875,-40867.79297
15.8046875,-40863.94922
15.8125,-40855.71094
15.8203125,-40845.05469
15.828125,-40835.3125
15.8359375,-40829.84375
15.84375,-40830.12109
15.8515625,-40835.65625
15.859375,-40844.13281
15.8671875,-40852.16406
15.875,-40857.30859
15.8828125,-40858.16016
15.890625,-40855.71484
15.8984375,-40852.4375
15.90625,-40850.05469
15.9140625,-40849.95703
15.921875,-40850.72266
15.9296875,-40849.75781
15.9375,-40845.24609
15.9453125,-40836.47656
15.953125,-40826.06641
15.9609375,-40817.35547
15.96875,-40813.05078
15.9765625,-40814.04297
15.984375,-40818.49609
15.9921875,-40823.67578
16,-40827.3125
16.0078125,-40828.36719
16.015625,-40827.52734
16.0234375,-40825.29297
16.03125,-40822.11328
16.0390625,-40818.19922
16.046875,-40813.41797
16.0546875,-40809.76563
16.0625,-40809.22266
16.0703125,-40813.57422
16.078125,-40823.25391
16.0859375,-40835.66797
16.09375,-40847.72266
16.1015625,-40856.14063
16.109375,-40859.86328
16.1171875,-40860.59375
16.125,-40861.45703
16.1328125,-40865.44922
16.140625,-40873.5
16.1484375,-40883.43359
16.15625,-40891.67969
16.1640625,-40894.28125
16.171875,-40890.00391
16.1796875,-40881.09766
16.1875,-40871.73047
16.1953125,-40867.60547
16.203125,-40871.23438
16.2109375,-40881.47656
16.21875,-40894.35156
16.2265625,-40904.48047
16.234375,-40909.83203
16.2421875,-40911.85547
16.25,-40915.13281
16.2578125,-40924.35156
16.265625,-40940.76563
16.2734375,-40961.49609
16.28125,-40980.91406
16.2890625,-40993.66406
16.296875,-40998.28906
16.3046875,-40996.81641
16.3125,-40993.86719
16.3203125,-40993.57422
16.328125,-40996.76953
16.3359375,-41002.84375
16.34375,-41009.52734
16.3515625,-41015.74609
16.359375,-41022.59375
16.3671875,-41031.46094
16.375,-41044.10938
16.3828125,-41060.03516
16.390625,-41077.04688
16.3984375,-41092.22656
16.40625,-41102.98438
16.4140625,-41108.43359
16.421875,-41109.66016
16.4296875,-41108.75781
16.4375,-41109.15625
16.4453125,-41113.00781
16.453125,-41121.33203
16.4609375,-41133.0625
16.46875,-41144.53125
16.4765625,-41152.76172
16.484375,-41155.52734
16.4921875,-41153.85547
16.5,-41152.125
16.5078125,-41154.85938
16.515625,-41165.33594
16.5234375,-41181.96094
16.53125,-41199.10547
16.5390625,-41209.79297
16.546875,-41208.99609
16.5546875,-41196.53125
16.5625,-41176.80859
16.5703125,-41155.75391
16.578125,-41138.84766
16.5859375,-41127.44922
16.59375,-41120.10156
16.6015625,-41113.86719
16.609375,-41105.18359
16.6171875,-41092.99609
16.625,-41077
16.6328125,-41058.39063
16.640625,-41039.82813
16.6484375,-41023.87891
16.65625,-41013.60547
16.6640625,-41009.97656
16.671875,-41011.41406
16.6796875,-41014.21484
16.6875,-41014.08594
16.6953125,-41009.10156
16.703125,-41001.23438
16.7109375,-40994.97266
16.71875,-40995.96094
16.7265625,-41006.16016
16.734375,-41023.53125
16.7421875,-41042.92969
16.75,-41058.17578
16.7578125,-41067.10547
16.765625,-41070.66016
16.7734375,-41072.6875
16.78125,-41077.46094
16.7890625,-41086.25391
16.796875,-41098.19141
16.8046875,-41110.16406
16.8125,-41119.29688
16.8203125,-41124.55469
16.828125,-41126.45313
16.8359375,-41126.53125
16.84375,-41125.87891
16.8515625,-41123.76172
16.859375,-41119.47266
16.8671875,-41112.10547
16.875,-41103.20703
16.8828125,-41096.86719
16.890625,-41097.35156
16.8984375,-41108.21875
16.90625,-41127.95313
16.9140625,-41150.4375
16.921875,-41167.875
16.9296875,-41174.13281
16.9375,-41170.01953
16.9453125,-41162.36328
16.953125,-41160.50781
16.9609375,-41170.39453
16.96875,-41189.64453
16.9765625,-41208.40234
16.984375,-41214.61719
16.9921875,-41200.19922
17,-41166.08984
17.0078125,-41121.25781
17.015625,-41075.14453
17.0234375,-41033.18359
17.03125,-40993.41016
17.0390625,-40951.29297
17.046875,-40903.51172
17.0546875,-40852.73047
17.0625,-40807.28125
17.0703125,-40775.16797
17.078125,-40759.85156
17.0859375,-40756.26563
17.09375,-40753.49609
17.1015625,-40740.31641
17.109375,-40710.42188
17.1171875,-40665.10547
17.125,-40611.38281
17.1328125,-40556.42969
17.140625,-40504.21484
17.1484375,-40451.51563
17.15625,-40390.28516
17.1640625,-40311.375
17.171875,-40208.17578
17.1796875,-40081.57422
17.1875,-39938.50391
17.1953125,-39790.53906
17.203125,-39650.35938
17.2109375,-39527.34766
17.21875,-39426.38672
17.2265625,-39346.88281
17.234375,-39284.29297
17.2421875,-39232.29688
17.25,-39184.24219
17.2578125,-39135.22266
17.265625,-39082.87891
17.2734375,-39026.91797
17.28125,-38969.79688
17.2890625,-38913.59766
17.296875,-38859.53125
17.3046875,-38807.14063
17.3125,-38753.78125
17.3203125,-38698.26953
17.328125,-38640.625
17.3359375,-38583.40234
17.34375,-38530.48047
17.3515625,-38484.05859
17.359375,-38443.98047
17.3671875,-38407.35938
17.375,-38370.93359
17.3828125,-38333.69531
17.390625,-38297.30859
17.3984375,-38265.63672
17.40625,-38241.89063
17.4140625,-38225.76953
17.421875,-38214.66406
17.4296875,-38203.70313
17.4375,-38189.48047
17.4453125,-38171.78906
17.453125,-38152.46094
17.4609375,-38135.35156
17.46875,-38122.29297
17.4765625,-38112.28125
17.484375,-38102.01172
17.4921875,-38086.55078
17.5,-38062.22266
17.5078125,-38027.73047
17.515625,-37984.35156
17.5234375,-37935.625
17.53125,-37885.23828
17.5390625,-37836.47266
17.546875,-37791.12109
17.5546875,-37748.87891
17.5625,-37709.32813
17.5703125,-37670.82813
17.578125,-37632.03516
17.5859375,-37592.26172
17.59375,-37550.83594
17.6015625,-37509.05078
17.609375,-37468.67969
17.6171875,-37432.14063
17.625,-37401.73828
17.6328125,-37377.71484
17.640625,-37358.21875
17.6484375,-37339.32813
17.65625,-37316.67578
17.6640625,-37287.82422
17.671875,-37252.99219
17.6796875,-37215.65625
17.6875,-37180.57422
17.6953125,-37150.80859
17.703125,-37127.62891
17.7109375,-37108.78125
17.71875,-37090.83984
17.7265625,-37071.25
17.734375,-37048.59375
17.7421875,-37024.28906
17.75,-36999.75781
17.7578125,-36975.82031
17.765625,-36952.42188
17.7734375,-36928.49609
17.78125,-36903.77734
17.7890625,-36879.16016
17.796875,-36856.25781
17.8046875,-36836.78516
17.8125,-36820.71094
17.8203125,-36806.96484
17.828125,-36794.07422
17.8359375,-36780.69141
17.84375,-36767.87109
17.8515625,-36756.68359
17.859375,-36747.96094
17.8671875,-36741.37891
17.875,-36734.56641
17.8828125,-36726.08984
17.890625,-36715.36328
17.8984375,-36703.76563
17.90625,-36694.11328
17.9140625,-36688.28906
17.921875,-36686.50781
17.9296875,-36686.85938
17.9375,-36686.42969
17.9453125,-36683.55469
17.953125,-36678.09766
17.9609375,-36672.00391
17.96875,-36667.65625
17.9765625,-36665.5
17.984375,-36664.92188
17.9921875,-36663.14063
18,-36657.77734
18.0078125,-36648.57422
18.015625,-36636.88672
18.0234375,-36626.21484
18.03125,-36618.95703
18.0390625,-36615.37891
18.046875,-36613.80859
18.0546875,-36611.40234
18.0625,-36606.64453
18.0703125,-36600.28516
18.078125,-36594.68359
18.0859375,-36592.64063
18.09375,-36594.67188
18.1015625,-36599.29688
18.109375,-36603.85156
18.1171875,-36605.48047
18.125,-36604.36328
18.1328125,-36601.78516
18.140625,-36599.73438
18.1484375,-36599.24219
18.15625,-36598.55078
18.1640625,-36595.27734
18.171875,-36586.89453
18.1796875,-36573.15234
18.1875,-36556.83203
18.1953125,-36542.35156
18.203125,-36533.83984
18.2109375,-36532.625
18.21875,-36535.92969
18.2265625,-36538.60156
18.234375,-36534.94531
18.2421875,-36522.59766
18.25,-36503.79297
18.2578125,-36483.61328
18.265625,-36468.60938
18.2734375,-36461.86719
18.28125,-36462.29688
18.2890625,-36465.95703
18.296875,-36467.8125
18.3046875,-36466.07031
18.3125,-36461.59766
18.3203125,-36457.05859
18.328125,-36454.19531
18.3359375,-36451.61328
18.34375,-36445.19141
18.3515625,-36430.34766
18.359375,-36404.14063
18.3671875,-36367.875
18.375,-36325.16016
18.3828125,-36280.71875
18.390625,-36237.87891
18.3984375,-36196.87109
18.40625,-36157.30078
18.4140625,-36118.14453
18.421875,-36079.85156
18.4296875,-36044.33984
18.4375,-36012.6875
18.4453125,-35984.91016
18.453125,-35958.55078
18.4609375,-35930.16016
18.46875,-35897.41797
18.4765625,-35860.23828
18.484375,-35821.20313
18.4921875,-35784.22266
18.5,-35752.07422
18.5078125,-35726.38281
18.515625,-35705.94531
18.5234375,-35688.6875
18.53125,-35672.62109
18.5390625,-35655.90234
18.546875,-35638.83984
18.5546875,-35621.94531
18.5625,-35606.04297
18.5703125,-35591.74219
18.578125,-35577.94922
18.5859375,-35563.26563
18.59375,-35545.90625
18.6015625,-35525.3125
18.609375,-35502.93359
18.6171875,-35481.3125
18.625,-35462.85156
18.6328125,-35448.12891
18.640625,-35435.07813
18.6484375,-35421.59375
18.65625,-35406.41016
18.6640625,-35391.375
18.671875,-35380.35938
18.6796875,-35375.65234
18.6875,-35376.94531
18.6953125,-35379.32422
18.703125,-35376.41016
18.7109375,-35364.41406
18.71875,-35343.94141
18.7265625,-35320.33203
18.734375,-35299.74219
18.7421875,-35285.62109
18.75,-35277.3125
18.7578125,-35271.04297
18.765625,-35263.52734
18.7734375,-35254.46484
18.78125,-35245.8125
18.7890625,-35240.85156
18.796875,-35239.94141
18.8046875,-35240.66797
18.8125,-35239.23828
18.8203125,-35232.49219
18.828125,-35221.42188
18.8359375,-35209.26563
18.84375,-35199.75
18.8515625,-35194.77734
18.859375,-35192.43359
18.8671875,-35189.10547
18.875,-35181.45313
18.8828125,-35168.76563
18.890625,-35153.54297
18.8984375,-35139.52344
18.90625,-35129.95703
18.9140625,-35125.64844
18.921875,-35124.24609
18.9296875,-35122.98828
18.9375,-35118.86328
18.9453125,-35111.01172
18.953125,-35100.66016
18.9609375,-35089.37891
18.96875,-35079.46484
18.9765625,-35071.50391
18.984375,-35064.98438
18.9921875,-35059.23438
19,-35053.61328
19.0078125,-35048.66797
19.015625,-35045.30469
19.0234375,-35043.80078
19.03125,-35043.20703
19.0390625,-35040.58984
19.046875,-35032.78125
19.0546875,-35017.76563
19.0625,-34995.32813
19.0703125,-34968.40625
19.078125,-34940.07422
19.0859375,-34912.71094
19.09375,-34886.92188
19.1015625,-34861.22266
19.109375,-34835.09766
19.1171875,-34808.89844
19.125,-34784.47656
19.1328125,-34763.94141
19.140625,-34747.125
19.1484375,-34731.49609
19.15625,-34712.82031
19.1640625,-34687.62891
19.171875,-34655.89844
19.1796875,-34621.17578
19.1875,-34589.75781
19.1953125,-34567.48047
19.203125,-34556.20313
19.2109375,-34554.08594
19.21875,-34555.05078
19.2265625,-34552.37109
19.234375,-34541.80469
19.2421875,-34522.55078
19.25,-34498.85547
19.2578125,-34476.73047
19.265625,-34461.80078
19.2734375,-34457.05469
19.28125,-34461.05469
19.2890625,-34469.10156
19.296875,-34475.07031
19.3046875,-34474.20703
19.3125,-34465.50781
19.3203125,-34451.50781
19.328125,-34437.34766
19.3359375,-34427.75781
19.34375,-34423.90625
19.3515625,-34424.10938
19.359375,-34423.66406
19.3671875,-34418.49219
19.375,-34407.57031
19.3828125,-34392.58984
19.390625,-34377.98828
19.3984375,-34367.11719
19.40625,-34360.83984
19.4140625,-34357.59375
19.421875,-34354.04297
19.4296875,-34347.60547
19.4375,-34337.43359
19.4453125,-34324.40234
19.453125,-34310.76172
19.4609375,-34298.30469
19.46875,-34288.39844
19.4765625,-34281.47656
19.484375,-34276.45703
19.4921875,-34272.58594
19.5,-34268.28906
19.5078125,-34262.49219
19.515625,-34255.37891
19.5234375,-34247.37891
19.53125,-34240.22266
19.5390625,-34234.84375
19.546875,-34231.16406
19.5546875,-34228.28125
19.5625,-34224.49609
19.5703125,-34218.79688
19.578125,-34211.42969
19.5859375,-34203.61328
19.59375,-34197.32422
19.6015625,-34193.25391
19.609375,-34190.82031
19.6171875,-34188.00391
19.625,-34181.75391
19.6328125,-34170.98438
19.640625,-34156.03125
19.6484375,-34139.38281
19.65625,-34124.48438
19.6640625,-34112.97266
19.671875,-34104.8125
19.6796875,-34097.08984
19.6875,-34086.10547
19.6953125,-34069.35938
19.703125,-34046.59375
19.7109375,-34020.17188
19.71875,-33993.58594
19.7265625,-33969.55469
19.734375,-33949.4375
19.7421875,-33932.25
19.75,-33916.33594
19.7578125,-33900.28125
19.765625,-33882.97266
19.7734375,-33865.42188
19.78125,-33848.74219
19.7890625,-33834.35547
19.796875,-33823.73828
19.8046875,-33817.01953
19.8125,-33814.375
19.8203125,-33814.90234
19.828125,-33817.39453
19.8359375,-33820.65625
19.84375,-33823.20703
19.8515625,-33823.81641
19.859375,-33821.58594
19.8671875,-33815.77344
19.875,-33807.28125
19.8828125,-33797.58594
19.890625,-33789.35938
19.8984375,-33785.40234
19.90625,-33786.74219
19.9140625,-33793.26172
19.921875,-33802.03516
19.9296875,-33809.09375
19.9375,-33811.32031
19.9453125,-33807.02344
19.953125,-33797.88281
19.9609375,-33787.09375
19.96875,-33778.12891
19.9765625,-33773.03125
19.984375,-33771.20313
19.9921875,-33770.41016
20,-33768.33594
20.0078125,-33763.77344
20.015625,-33758.24609
20.0234375,-33753.82813
20.03125,-33752.45703
20.0390625,-33754.42969
20.046875,-33757.63672
20.0546875,-33760.25781
20.0625,-33760.75391
20.0703125,-33759.27734
20.078125,-33757.31641
20.0859375,-33755.35547
20.09375,-33753
20.1015625,-33747.92969
20.109375,-33737.49609
20.1171875,-33720.31641
20.125,-33697.05469
20.1328125,-33670.51172
20.140625,-33644.39844
20.1484375,-33621.21875
20.15625,-33602.30078
20.1640625,-33586.15234
20.171875,-33570.34375
20.1796875,-33552.69531
20.1875,-33531.86328
20.1953125,-33509.50781
20.203125,-33488.22266
20.2109375,-33471.02344
20.21875,-33460.25391
20.2265625,-33456.02344
20.234375,-33457.33984
20.2421875,-33462.30859
20.25,-33469.15234
20.2578125,-33476.64063
20.265625,-33483.57813
20.2734375,-33488.9375
20.28125,-33492.05859
20.2890625,-33492.46094
20.296875,-33491.29688
20.3046875,-33489.41016
20.3125,-33487.38281
20.3203125,-33484.82422
20.328125,-33479.91406
20.3359375,-33472.34766
20.34375,-33463.08984
20.3515625,-33455.19531
20.359375,-33452.54688
20.3671875,-33456.82813
20.375,-33466.71875
20.3828125,-33477.66406
20.390625,-33484.26172
20.3984375,-33483.27344
20.40625,-33474.86328
20.4140625,-33462.72266
20.421875,-33451.67578
20.4296875,-33444.66016
20.4375,-33442.66406
20.4453125,-33443.61719
20.453125,-33444.87891
20.4609375,-33444.64063
20.46875,-33441.69922
20.4765625,-33436.59375
20.484375,-33429.38281
20.4921875,-33420.01172
20.5,-33408.98828
20.5078125,-33397.65234
20.515625,-33388.77734
20.5234375,-33385.40625
20.53125,-33389.32422
20.5390625,-33399.92969
20.546875,-33413.64844
20.5546875,-33425.99219
20.5625,-33433.55078
20.5703125,-33435.11719
20.578125,-33433.15234
20.5859375,-33430.92578
20.59375,-33431.57813
20.6015625,-33436.625
20.609375,-33444.89063
20.6171875,-33454.625
20.625,-33462.97656
20.6328125,-33467.49219
20.640625,-33467
20.6484375,-33461.75391
20.65625,-33454.56641
20.6640625,-33449.87891
20.671875,-33451.91797
20.6796875,-33462.28516
20.6875,-33477.49219
20.6953125,-33490.17578
20.703125,-33492.09375
20.7109375,-33478.05469
20.71875,-33450.08594
20.7265625,-33415.31641
20.734375,-33382.97656
20.7421875,-33359.45703
20.75,-33344.83594
20.7578125,-33335.08203
20.765625,-33323.95703
20.7734375,-33307.06641
20.78125,-33283.59375
20.7890625,-33254.85938
20.796875,-33223.27344
20.8046875,-33190.94531
20.8125,-33159.73438
20.8203125,-33131.98047
20.828125,-33109.58594
20.8359375,-33093.30859
20.84375,-33081.42578
20.8515625,-33069.42969
20.859375,-33053.70703
20.8671875,-33032.66016
20.875,-33009.07813
20.8828125,-32988.83594
20.890625,-32976.66797
20.8984375,-32974.33984
20.90625,-32978.31641
20.9140625,-32982.18359
20.921875,-32980.77344
20.9296875,-32972.50781
20.9375,-32960.50391
20.9453125,-32949.98828
20.953125,-32944.72656
20.9609375,-32945.09766
20.96875,-32947.65625
20.9765625,-32948.21094
20.984375,-32944.48828
20.9921875,-32936.83984
21,-32928.58594
21.0078125,-32922.02344
21.015625,-32917.30078
21.0234375,-32912.50391
21.03125,-32904.57422
21.0390625,-32893.08594
21.046875,-32879.80078
21.0546875,-32867.90625
21.0625,-32859.89063
21.0703125,-32855.30078
21.078125,-32851.64063
21.0859375,-32846.27344
21.09375,-32838.57031
21.1015625,-32831.01563
21.109375,-32826.97266
21.1171875,-32829.00781
21.125,-32836.92188
21.1328125,-32847.35938
21.140625,-32857.06641
21.1484375,-32863.38672
21.15625,-32865.66797
21.1640625,-32864.82031
21.171875,-32860.97266
21.1796875,-32854.30469
21.1875,-32844.44531
21.1953125,-32832.35547
21.203125,-32821.02344
21.2109375,-32814.25
21.21875,-32814.82422
21.2265625,-32822.26563
21.234375,-32832.02734
21.2421875,-32837.97656
21.25,-32834.82813
21.2578125,-32821.82422
21.265625,-32803.09766
21.2734375,-32784.82813
21.28125,-32772.85547
21.2890625,-32767.94531
21.296875,-32766.1582
21.3046875,-32761.44336
21.3125,-32748.70703
21.3203125,-32728.1543
21.328125,-32704.22461
21.3359375,-32683.35352
21.34375,-32670.25195
21.3515625,-32665.10938
21.359375,-32664.28711
21.3671875,-32662.98828
21.375,-32658.01758
21.3828125,-32650.36523
21.390625,-32642.99414
21.3984375,-32639.10547
21.40625,-32639.3418
21.4140625,-32640.45313
21.421875,-32638.48438
21.4296875,-32630.12305
21.4375,-32615.66992
21.4453125,-32599.35742
21.453125,-32586.26367
21.4609375,-32580.51367
21.46875,-32582.07227
21.4765625,-32587.30664
21.484375,-32591.25977
21.4921875,-32590.34375
21.5,-32584.5625
21.5078125,-32577.01367
21.515625,-32571.40625
21.5234375,-32570.375
21.53125,-32572.85938
21.5390625,-32575.71094
21.546875,-32575.6543
21.5546875,-32570.70703
21.5625,-32562.49609
21.5703125,-32553.78516
21.578125,-32547.20508
21.5859375,-32543.91797
21.59375,-32542.36133
21.6015625,-32540.5
21.609375,-32536.45313
21.6171875,-32529.96484
21.625,-32522.61133
21.6328125,-32516.60352
21.640625,-32513.86914
21.6484375,-32515.08203
21.65625,-32518.7832
21.6640625,-32522.79883
21.671875,-32523.79492
21.6796875,-32519.40039
21.6875,-32509.14063
21.6953125,-32494.33594
21.703125,-32479.25781
21.7109375,-32468.23828
21.71875,-32464.32617
21.7265625,-32467.87109
21.734375,-32475.61523
21.7421875,-32483.00391
21.75,-32486.125
21.7578125,-32484.04492
21.765625,-32479.29492
21.7734375,-32475.92188
21.78125,-32476.98242
21.7890625,-32482.4082
21.796875,-32488.33008
21.8046875,-32490.31836
21.8125,-32485.07813
21.8203125,-32473.53125
21.828125,-32460.4043
21.8359375,-32450.95703
21.84375,-32449.09375
21.8515625,-32453.68945
21.859375,-32459.55273
21.8671875,-32460.37305
21.875,-32451.53516
21.8828125,-32433.25781
21.890625,-32409.89648
21.8984375,-32387.62305
21.90625,-32371.39453
21.9140625,-32362.33398
21.921875,-32358.34375
21.9296875,-32355.70313
21.9375,-32350.92773
21.9453125,-32343.2793
21.953125,-32333.18164
21.9609375,-32322.11719
21.96875,-32311.53711
21.9765625,-32302.07422
21.984375,-32295.46289
21.9921875,-32293.38281
22,-32297.53516
22.0078125,-32308.72656
22.015625,-32325.32227
22.0234375,-32344.11133
22.03125,-32361.13281
22.0390625,-32373.44727
22.046875,-32380.5332
22.0546875,-32383.84961
22.0625,-32386.57227
22.0703125,-32392.03906
22.078125,-32402.00586
22.0859375,-32417.16797
22.09375,-32435.55664
22.1015625,-32454.16211
22.109375,-32470.20117
22.1171875,-32481.86133
22.125,-32490.75391
22.1328125,-32500.05273
22.140625,-32513.35352
22.1484375,-32532.85352
22.15625,-32557.53516
22.1640625,-32584.62891
22.171875,-32611.0293
22.1796875,-32635.34766
22.1875,-32658.66797
22.1953125,-32682.84961
22.203125,-32709.39844
22.2109375,-32738.08008
22.21875,-32766.78125
22.2265625,-32794.03125
22.234375,-32818.82813
22.2421875,-32841.66797
22.25,-32863.87109
22.2578125,-32885.74609
22.265625,-32907.83203
22.2734375,-32929.73438
22.28125,-32951.19141
22.2890625,-32972.45703
22.296875,-32993.40234
22.3046875,-33013.89063
22.3125,-33033.50781
22.3203125,-33052.10938
22.328125,-33070.46875
22.3359375,-33089.45703
22.34375,-33109.89844
22.3515625,-33131.62891
22.359375,-33152.88281
22.3671875,-33172.61719
22.375,-33190.23828
22.3828125,-33207.09375
22.390625,-33225.98047
22.3984375,-33248.86328
22.40625,-33276.83984
22.4140625,-33308.17969
22.421875,-33339.60156
22.4296875,-33368.3125
22.4375,-33392.91797
22.4453125,-33414.90234
22.453125,-33437.65234
22.4609375,-33464.73047
22.46875,-33498.26953
22.4765625,-33537.17578
22.484375,-33577.94531
22.4921875,-33615.98828
22.5,-33647.19531
22.5078125,-33670.47266
22.515625,-33687.08984
22.5234375,-33699.73438
22.53125,-33710.85938
22.5390625,-33720.53906
22.546875,-33728.03906
22.5546875,-33731.67969
22.5625,-33730.80469
22.5703125,-33726.58203
22.578125,-33720.86719
22.5859375,-33715.69531
22.59375,-33712.35156
22.6015625,-33711.46484
22.609375,-33714.03125
22.6171875,-33720.9375
22.625,-33732.92578
22.6328125,-33749.29688
22.640625,-33766.80078
22.6484375,-33782.05078
22.65625,-33791.98047
22.6640625,-33796.46484
22.671875,-33798.59375
22.6796875,-33801.94922
22.6875,-33809.67969
22.6953125,-33821.62109
22.703125,-33835.25781
22.7109375,-33847.95703
22.71875,-33858.34375
22.7265625,-33867.32031
22.734375,-33876.75781
22.7421875,-33887.58594
22.75,-33899.48438
22.7578125,-33910.53906
22.765625,-33919.58594
22.7734375,-33927.21484
22.78125,-33935.17578
22.7890625,-33946.86328
22.796875,-33964.19922
22.8046875,-33987.51953
22.8125,-34015.65625
22.8203125,-34045.71484
22.828125,-34075.46094
22.8359375,-34103.00781
22.84375,-34127.83984
22.8515625,-34151.01172
22.859375,-34174.28125
22.8671875,-34199.65234
22.875,-34228.21875
22.8828125,-34259.32422
22.890625,-34291.52344
22.8984375,-34322.73828
22.90625,-34352.21484
22.9140625,-34380.89063
22.921875,-34410.10547
22.9296875,-34441.83984
22.9375,-34476.07422
22.9453125,-34511.39063
22.953125,-34546.26563
22.9609375,-34579.4375
22.96875,-34612.05469
22.9765625,-34646.01953
22.984375,-34683.01563
22.9921875,-34723.01953
23,-34763.80859
23.0078125,-34800.94141
23.015625,-34831.55859
23.0234375,-34854.27344
23.03125,-34870.96875
23.0390625,-34884.46875
23.046875,-34897.69922
23.0546875,-34911.76953
23.0625,-34924.96484
23.0703125,-34935.42578
23.078125,-34941.4375
23.0859375,-34943.63281
23.09375,-34945.26953
23.1015625,-34949.73828
23.109375,-34959.72266
23.1171875,-34974.62891
23.125,-34991.21094
23.1328125,-35005.43359
23.140625,-35014.64063
23.1484375,-35019.39844
23.15625,-35023.25391
23.1640625,-35030.32031
23.171875,-35044.05078
23.1796875,-35064.38281
23.1875,-35088.91016
23.1953125,-35114.21875
23.203125,-35136.82031
23.2109375,-35155.80469
23.21875,-35171.01563
23.2265625,-35183.02344
23.234375,-35192.71875
23.2421875,-35200.28125
23.25,-35207.00781
23.2578125,-35214.40625
23.265625,-35224.375
23.2734375,-35238.26563
23.28125,-35255.58984
23.2890625,-35274.27734
23.296875,-35291.50391
23.3046875,-35304.65234
23.3125,-35313.94141
23.3203125,-35321.30078
23.328125,-35330.5
23.3359375,-35345.07813
23.34375,-35365.80859
23.3515625,-35391.45313
23.359375,-35417.80859
23.3671875,-35440.33984
23.375,-35456.67188
23.3828125,-35467.15625
23.390625,-35475.54688
23.3984375,-35486.43359
23.40625,-35502.91406
23.4140625,-35525.17578
23.421875,-35550.14063
23.4296875,-35573.80469
23.4375,-35593.69141
23.4453125,-35609.72266
23.453125,-35625.20313
23.4609375,-35643.28516
23.46875,-35665.85938
23.4765625,-35692.24609
23.484375,-35719.14063
23.4921875,-35744.17578
23.5,-35765.98438
23.5078125,-35786.24609
23.515625,-35807.82031
23.5234375,-35833.15625
23.53125,-35863.36328
23.5390625,-35897.40625
23.546875,-35932.89063
23.5546875,-35967.44531
23.5625,-35998.91016
23.5703125,-36026.01563
23.578125,-36047.68359
23.5859375,-36062.16016
23.59375,-36068.64844
23.6015625,-36066.44141
23.609375,-36056.55859
23.6171875,-36041.80078
23.625,-36025.04297
23.6328125,-36009.85156
23.640625,-35997.90234
23.6484375,-35989.34766
23.65625,-35983.46875
23.6640625,-35978.61328
23.671875,-35973.66016
23.6796875,-35967.83203
23.6875,-35960.85547
23.6953125,-35953.21484
23.703125,-35945.25391
23.7109375,-35937.64844
23.71875,-35930.9375
23.7265625,-35924.74609
23.734375,-35919.5625
23.7421875,-35915.53125
23.75,-35913.74609
23.7578125,-35916.04688
23.765625,-35923.29297
23.7734375,-35936.0625
23.78125,-35952.57813
23.7890625,-35969.73047
23.796875,-35984.59375
23.8046875,-35995.04688
23.8125,-36001.19531
23.8203125,-36004.70703
23.828125,-36007.74219
23.8359375,-36012.22266
23.84375,-36018.52734
23.8515625,-36026.48047
23.859375,-36035.67188
23.8671875,-36045.39453
23.875,-36056.28516
23.8828125,-36068.18359
23.890625,-36080.54297
23.8984375,-36092.25
23.90625,-36101.00781
23.9140625,-36105.86719
23.921875,-36106.72656
23.9296875,-36105.37109
23.9375,-36105.32031
23.9453125,-36109.76563
23.953125,-36120.52734
23.9609375,-36136.71484
23.96875,-36154.87891
23.9765625,-36171.10156
23.984375,-36182.44531
23.9921875,-36189.26563
24,-36194.73828
24.0078125,-36202.51563
24.015625,-36215.65625
24.0234375,-36233.50781
24.03125,-36252.89844
24.0390625,-36270.29688
24.046875,-36283.13281
24.0546875,-36292.5625
24.0625,-36301.42969
24.0703125,-36312.80469
24.078125,-36328.34375
24.0859375,-36347.01172
24.09375,-36366.35547
24.1015625,-36383.77734
24.109375,-36397.53906
24.1171875,-36407.71094
24.125,-36415.03125
24.1328125,-36421.36328
24.140625,-36429.13281
24.1484375,-36440.22266
24.15625,-36456.73047
24.1640625,-36478.37891
24.171875,-36502.74609
24.1796875,-36525.98047
24.1875,-36543.47656
24.1953125,-36553.59766
24.203125,-36557.43359
24.2109375,-36558.92188
24.21875,-36562.71875
24.2265625,-36571.49219
24.234375,-36585.125
24.2421875,-36601.24609
24.25,-36616.74609
24.2578125,-36630.22656
24.265625,-36641.49609
24.2734375,-36651.52734
24.28125,-36661.01953
24.2890625,-36669.125
24.296875,-36675.84375
24.3046875,-36681.625
24.3125,-36689.01172
24.3203125,-36702.00391
24.328125,-36722.89063
24.3359375,-36751.66797
24.34375,-36784.15234
24.3515625,-36814.23828
24.359375,-36837
24.3671875,-36851.25
24.375,-36860.71875
24.3828125,-36872.14844
24.390625,-36891.38281
24.3984375,-36921.26172
24.40625,-36959.04688
24.4140625,-36998.76172
24.421875,-37034.04688
24.4296875,-37060.53125
24.4375,-37079.26953
24.4453125,-37094.43359
24.453125,-37111.78516
24.4609375,-37135.89063
24.46875,-37166.88281
24.4765625,-37201.82031
24.484375,-37235.40234
24.4921875,-37263.62109
24.5,-37286.51172
24.5078125,-37307.54297
24.515625,-37332.92188
24.5234375,-37367.08203
24.53125,-37409.41797
24.5390625,-37454.87891
24.546875,-37495.01953
24.5546875,-37523.08594
24.5625,-37537.15234
24.5703125,-37539.98438
24.578125,-37538.61328
24.5859375,-37538.76563
24.59375,-37542.57813
24.6015625,-37548.22656
24.609375,-37550.66797
24.6171875,-37546.54297
24.625,-37535.70703
24.6328125,-37522.32813
24.640625,-37513.08984
24.6484375,-37513.58203
24.65625,-37525.82422
24.6640625,-37547.47656
24.671875,-37573.06641
24.6796875,-37598.35156
24.6875,-37621.62109
24.6953125,-37645.35938
24.703125,-37674.35938
24.7109375,-37711.91016
24.71875,-37759.40625
24.7265625,-37814.30469
24.734375,-37872.62891
24.7421875,-37931.39844
24.75,-37988.70703
24.7578125,-38044.66016
24.765625,-38098.89844
24.7734375,-38150.15625
24.78125,-38196.67188
24.7890625,-38237.04297
24.796875,-38271.62109
24.8046875,-38302.45703
24.8125,-38331.35156
24.8203125,-38360.00391
24.828125,-38388.01172
24.8359375,-38414.89063
24.84375,-38441.33203
24.8515625,-38468.85156
24.859375,-38500.75391
24.8671875,-38538.47266
24.875,-38580.81641
24.8828125,-38624.09766
24.890625,-38662.89844
24.8984375,-38693.48828
24.90625,-38714.95703
24.9140625,-38729.46094
24.921875,-38740.91406
24.9296875,-38752.35156
24.9375,-38764.59375
24.9453125,-38775.99219
24.953125,-38782.73828
24.9609375,-38782.0625
24.96875,-38772.04297
24.9765625,-38753.37891
24.984375,-38728.89063
24.9921875,-38701.56641
25,-38675.19531
25.0078125,-38652.46094
25.015625,-38634.39844
25.0234375,-38621.70313
25.03125,-38614.11328
25.0390625,-38612.0625
25.046875,-38616.35156
25.0546875,-38628.28516
25.0625,-38649.16797
25.0703125,-38678.73828
25.078125,-38715.24609
25.0859375,-38755.46875
25.09375,-38795.69141
25.1015625,-38835.14844
25.109375,-38875.13281
25.1171875,-38918.83984
25.125,-38968.22266
25.1328125,-39020.35938
25.140625,-39069.63281
25.1484375,-39110.05859
25.15625,-39141.82031
25.1640625,-39175.38672
25.171875,-39228.75391
25.1796875,-39321.04688
25.1875,-39462.64844
25.1953125,-39649.65234
25.203125,-39865.37109
25.2109375,-40086.96875
25.21875,-40295.07813
25.2265625,-40478.9375
25.234375,-40635.53906
25.2421875,-40766.88672
25.25,-40873.80469
25.2578125,-40955.17578
25.265625,-41008.97656
25.2734375,-41033.05469
25.28125,-41027.46094
25.2890625,-40991.8125
25.296875,-40925.53516
25.3046875,-40829.60156
25.3125,-40709.16797
25.3203125,-40576.82422
25.328125,-40451.02344
25.3359375,-40350.14453
25.34375,-40284.9375
25.3515625,-40252.46484
25.359375,-40237.88672
25.3671875,-40221.625
25.375,-40188.46094
25.3828125,-40135.78516
25.390625,-40071.19531
25.3984375,-40006.79688
25.40625,-39950.5625
25.4140625,-39900.22656
25.421875,-39846.48828
25.4296875,-39777.78516
25.4375,-39687.89453
25.4453125,-39579.61719
25.453125,-39462.03516
25.4609375,-39346.17969
25.46875,-39239.875
25.4765625,-39145.98438
25.484375,-39064.64063
25.4921875,-38995.41406
25.5,-38940.45703
25.5078125,-38903.58203
25.515625,-38888.82422
25.5234375,-38899.84766
25.53125,-38937.25391
25.5390625,-38999.60156
25.546875,-39083.80078
25.5546875,-39184.09766
25.5625,-39294.04297
25.5703125,-39405.68359
25.578125,-39511.48438
25.5859375,-39606.14844
25.59375,-39686.69922
25.6015625,-39752.86328
25.609375,-39806.01953
25.6171875,-39848.25391
25.625,-39882.92578
25.6328125,-39913.58594
25.640625,-39944.32031
25.6484375,-39977.99609
25.65625,-40014.08203
25.6640625,-40050.15625
25.671875,-40081.83594
25.6796875,-40106.69141
25.6875,-40126.55078
25.6953125,-40146.10156
25.703125,-40171.53125
25.7109375,-40205.12891
25.71875,-40243.64844
25.7265625,-40279.3125
25.734375,-40303.03516
25.7421875,-40309.03906
25.75,-40296.85938
25.7578125,-40270.41406
25.765625,-40235.76172
25.7734375,-40197.00391
25.78125,-40155.60547
25.7890625,-40110.87109
25.796875,-40061.10156
25.8046875,-40007.46484
25.8125,-39952.82813
25.8203125,-39901.6875
25.828125,-39858.31641
25.8359375,-39823.625
25.84375,-39796.11328
25.8515625,-39771.67188
25.859375,-39746.58984
25.8671875,-39719.88672
25.875,-39693.63281
25.8828125,-39671.80859
25.890625,-39657.26563
25.8984375,-39648.73438
25.90625,-39641.49219
25.9140625,-39628.15234
25.921875,-39603.48047
25.9296875,-39567.21484
25.9375,-39523.875
25.9453125,-39482.17188
25.953125,-39449.1875
25.9609375,-39427.60547
25.96875,-39414.94531
25.9765625,-39404.26563
25.984375,-39389.52344
25.9921875,-39367.90625
26,-39341.66797
26.0078125,-39316.41797
26.015625,-39297.42578
26.0234375,-39286.42969
26.03125,-39280.58984
26.0390625,-39273.68359
26.046875,-39261.06641
26.0546875,-39241.125
26.0625,-39216.98828
26.0703125,-39193.94922
26.078125,-39175.07031
26.0859375,-39160.57031
26.09375,-39146.29688
26.1015625,-39127.22656
26.109375,-39100.88281
26.1171875,-39067.78516
26.125,-39031.84766
26.1328125,-38996.73828
26.140625,-38964.17188
26.1484375,-38933.74609
26.15625,-38903.80078
26.1640625,-38873.75781
26.171875,-38844.86719
26.1796875,-38818.94922
26.1875,-38798.24609
26.1953125,-38782.69922
26.203125,-38771.10156
26.2109375,-38761.69531
26.21875,-38752.25
26.2265625,-38741.89453
26.234375,-38729.06641
26.2421875,-38711.77734
26.25,-38688.15625
26.2578125,-38656.58203
26.265625,-38617.66797
26.2734375,-38573.92188
26.28125,-38529.14063
26.2890625,-38486.82813
26.296875,-38448.09375
26.3046875,-38411.66406
26.3125,-38374.49219
26.3203125,-38332.92578
26.328125,-38285.88672
26.3359375,-38233.77344
26.34375,-38178.85938
26.3515625,-38123.48438
26.359375,-38067.77344
26.3671875,-38011.05078
26.375,-37951.19922
26.3828125,-37887.07031
26.390625,-37819.81641
26.3984375,-37752.25391
26.40625,-37688.51563
26.4140625,-37631.98438
26.421875,-37584.25781
26.4296875,-37545.17969
26.4375,-37512.77734
26.4453125,-37484.96484
26.453125,-37460.23828
26.4609375,-37437.59766
26.46875,-37418.33594
26.4765625,-37403.91797
26.484375,-37396.35156
26.4921875,-37397.07422
26.5,-37405.27344
26.5078125,-37419.25
26.515625,-37435.58594
26.5234375,-37450.73438
26.53125,-37462.19141
26.5390625,-37468.06641
26.546875,-37467.58984
26.5546875,-37460.31641
26.5625,-37446.13672
26.5703125,-37425.95313
26.578125,-37401.36328
26.5859375,-37375.21875
26.59375,-37350.41797
26.6015625,-37328.05078
26.609375,-37308.25
26.6171875,-37288.79297
26.625,-37267.32422
26.6328125,-37242.78906
26.640625,-37215.03516
26.6484375,-37186.00781
26.65625,-37156.91797
26.6640625,-37127.91406
26.671875,-37098.04297
26.6796875,-37065.49219
26.6875,-37029.35547
26.6953125,-36990.14453
26.703125,-36949.66797
26.7109375,-36910.70313
26.71875,-36875.19141
26.7265625,-36844.05859
26.734375,-36816.64063
26.7421875,-36789.98047
26.75,-36760.89063
26.7578125,-36725.19531
26.765625,-36679.64844
26.7734375,-36623.26563
26.78125,-36556.73047
26.7890625,-36483.75391
26.796875,-36408.41797
26.8046875,-36334.14844
26.8125,-36262.97656
26.8203125,-36194.69531
26.828125,-36128.26563
26.8359375,-36062.87891
26.84375,-35998.70703
26.8515625,-35937.60547
26.859375,-35881.57422
26.8671875,-35832.61719
26.875,-35791.83594
26.8828125,-35758.66016
26.890625,-35732.92578
26.8984375,-35713.75781
26.90625,-35700.84375
26.9140625,-35694.45313
26.921875,-35693.98828
26.9296875,-35699.21875
26.9375,-35708.63672
26.9453125,-35720.04688
26.953125,-35731.17188
26.9609375,-35739.33984
26.96875,-35742.53516
26.9765625,-35739.44922
26.984375,-35729.57813
26.9921875,-35713.83984
27,-35693.61719
27.0078125,-35671.16016
27.015625,-35649.21094
27.0234375,-35629.86328
27.03125,-35615.66406
27.0390625,-35607.41016
27.046875,-35604.44141
27.0546875,-35604.69531
27.0625,-35604.26172
27.0703125,-35600.23438
27.078125,-35590.93359
27.0859375,-35577.44531
27.09375,-35563.14844
27.1015625,-35551.49609
27.109375,-35544.05859
27.1171875,-35538.92578
27.125,-35530.85938
27.1328125,-35514.71094
27.140625,-35487.38281
27.1484375,-35450.66016
27.15625,-35410.46875
27.1640625,-35373.08203
27.171875,-35343.10938
27.1796875,-35319.71875
27.1875,-35298.15234
27.1953125,-35273.21094
27.203125,-35241.64844
27.2109375,-35205.11328
27.21875,-35167.42969
27.2265625,-35131.84766
27.234375,-35098.34766
27.2421875,-35063.22656
27.25,-35022.19922
27.2578125,-34974.08984
27.265625,-34922.46875
27.2734375,-34875.46094
27.28125,-34840.39063
27.2890625,-34820.26953
27.296875,-34811.39453
27.3046875,-34804.07031
27.3125,-34788.64844
27.3203125,-34759.04688
27.328125,-34716.28516
27.3359375,-34668.14844
27.34375,-34624.25
27.3515625,-34592.5
27.359375,-34574.63672
27.3671875,-34566.54297
27.375,-34561.28906
27.3828125,-34552.89453
27.390625,-34539.58594
27.3984375,-34523.95313
27.40625,-34509.91406
27.4140625,-34500.64453
27.421875,-34495.16406
27.4296875,-34489.85938
27.4375,-34480.69922
27.4453125,-34464.88672
27.453125,-34443.62109
27.4609375,-34419.57031
27.46875,-34395.75
27.4765625,-34374.1875
27.484375,-34354.89063
27.4921875,-34337.57813
27.5,-34321.92578
27.5078125,-34308.09375
27.515625,-34296.45313
27.5234375,-34286.5625
27.53125,-34277.50391
27.5390625,-34268.55469
27.546875,-34259.44531
27.5546875,-34251.83594
27.5625,-34247.15625
27.5703125,-34246.30078
27.578125,-34248.48828
27.5859375,-34250.49609
27.59375,-34249.39844
27.6015625,-34242.59766
27.609375,-34229.60938
27.6171875,-34212.29297
27.625,-34193.05859
27.6328125,-34174.20313
27.640625,-34156.1875
27.6484375,-34137.53906
27.65625,-34115.64453
27.6640625,-34087.48047
27.671875,-34051.58203
27.6796875,-34008.69531
27.6875,-33961.35156
27.6953125,-33914.28516
27.703125,-33871.46094
27.7109375,-33835.54297
27.71875,-33807.09766
27.7265625,-33784.23438
27.734375,-33765.53906
27.7421875,-33749.92578
27.75,-33737.73828
27.7578125,-33730.17188
27.765625,-33727.19141
27.7734375,-33727.47266
27.78125,-33728.33203
27.7890625,-33727.27734
27.796875,-33723.66797
27.8046875,-33718.37891
27.8125,-33713.43359
27.8203125,-33709.97656
27.828125,-33706.91406
27.8359375,-33702.64453
27.84375,-33695.11328
27.8515625,-33684.06641
27.859375,-33671.26172
27.8671875,-33658.53125
27.875,-33647.90234
27.8828125,-33639.28125
27.890625,-33631.40625
27.8984375,-33623.34375
27.90625,-33614.89844
27.9140625,-33607.60156
27.921875,-33603.63672
27.9296875,-33604.64453
27.9375,-33611.11328
27.9453125,-33621.52344
27.953125,-33633.54688
27.9609375,-33644.78125
27.96875,-33653.14063
27.9765625,-33658.73828
27.984375,-33662.22266
27.9921875,-33665
28,-33668.45703
28.0078125,-33672.67188
28.015625,-33677.71094
28.0234375,-33682.71875
28.03125,-33686.80078
28.0390625,-33689.33203
28.046875,-33689.1875
28.0546875,-33685.24219
28.0625,-33676.40234
28.0703125,-33662.22266
28.078125,-33643.72266
28.0859375,-33622.42188
28.09375,-33599.91797
28.1015625,-33576.41406
28.109375,-33549.68359
28.1171875,-33517.4375
28.125,-33477.59375
28.1328125,-33430.61328
28.140625,-33379.67578
28.1484375,-33328.32813
28.15625,-33279.94922
28.1640625,-33235.21875
28.171875,-33192.97266
28.1796875,-33151.98047
28.1875,-33111.80469
28.1953125,-33073.72656
28.203125,-33039.57813
28.2109375,-33010.16016
28.21875,-32984.78516
28.2265625,-32960.64844
28.234375,-32934.71484
28.2421875,-32904.75781
28.25,-32869.82422
28.2578125,-32831.89063
28.265625,-32793.78516
28.2734375,-32758.9082
28.28125,-32729.99023
28.2890625,-32706.95117
28.296875,-32687.97852
28.3046875,-32669.16797
28.3125,-32647.05273
28.3203125,-32620.67383
28.328125,-32592.23438
28.3359375,-32566.56836
28.34375,-32548.60742
28.3515625,-32540.5625
28.359375,-32541.21484
28.3671875,-32545.86914
28.375,-32549.55078
28.3828125,-32549.21289
28.390625,-32544.24023
28.3984375,-32537.13477
28.40625,-32530.0625
28.4140625,-32523.83203
28.421875,-32517.55273
28.4296875,-32508.67383
28.4375,-32495.86328
28.4453125,-32478.97266
28.453125,-32459.54883
28.4609375,-32439.85547
28.46875,-32421.34766
28.4765625,-32404.29688
28.484375,-32387.87695
28.4921875,-32370.48633
28.5,-32351.47852
28.5078125,-32330.93945
28.515625,-32310.11719
28.5234375,-32291.28906
28.53125,-32276.43359
28.5390625,-32267.89063
28.546875,-32266.07813
28.5546875,-32269.74023
28.5625,-32276.3418
28.5703125,-32281.95508
28.578125,-32283.86328
28.5859375,-32280.38281
28.59375,-32271.69727
28.6015625,-32259.42578
28.609375,-32245.57227
28.6171875,-32232.21875
28.625,-32221.16992
28.6328125,-32213.40234
28.640625,-32209.80078
28.6484375,-32209.63867
28.65625,-32211.56445
28.6640625,-32213.97461
28.671875,-32215.43555
28.6796875,-32217.26367
28.6875,-32222.01953
28.6953125,-32233.14258
28.703125,-32253.23828
28.7109375,-32281.55664
28.71875,-32314.87109
28.7265625,-32347.58984
28.734375,-32374.11133
28.7421875,-32390.66992
28.75,-32395.9043
28.7578125,-32391.02539
28.765625,-32379.00781
28.7734375,-32363.11914
28.78125,-32347.08008
28.7890625,-32332.88672
28.796875,-32321.0332
28.8046875,-32310.06641
28.8125,-32296.38477
28.8203125,-32277.14844
28.828125,-32250.54297
28.8359375,-32217.57617
28.84375,-32182
28.8515625,-32147.70508
28.859375,-32117.49805
28.8671875,-32090.67188
28.875,-32063.69922
28.8828125,-32032.3125
28.890625,-31993.77344
28.8984375,-31948.75
28.90625,-31900.92969
28.9140625,-31854.46484
28.921875,-31812.75
28.9296875,-31775.76367
28.9375,-31741.43945
28.9453125,-31707.20508
28.953125,-31670.91016
28.9609375,-31633.02344
28.96875,-31594.65039
28.9765625,-31557.13672
28.984375,-31521.42383
28.9921875,-31487.37891
29,-31455.36719
29.0078125,-31425.56445
29.015625,-31399.36133
29.0234375,-31378.26367
29.03125,-31362.71094
29.0390625,-31352.21484
29.046875,-31345.19141
29.0546875,-31339.19336
29.0625,-31332.98633
29.0703125,-31325.5625
29.078125,-31316.91992
29.0859375,-31307.29492
29.09375,-31295.74414
29.1015625,-31281.50977
29.109375,-31263.30273
29.1171875,-31240.93555
29.125,-31216.2832
29.1328125,-31192.39648
29.140625,-31172.86914
29.1484375,-31159.70313
29.15625,-31152.07422
29.1640625,-31146.57813
29.171875,-31138.16016
29.1796875,-31122.9707
29.1875,-31100.30469
29.1953125,-31072.81055
29.203125,-31046.73828
29.2109375,-31027.99805
29.21875,-31020.08594
29.2265625,-31022.19727
29.234375,-31028.73242
29.2421875,-31033.19727
29.25,-31030.14453
29.2578125,-31018.25391
29.265625,-31000.81836
29.2734375,-30983.02344
29.28125,-30969.5957
29.2890625,-30962.20898
29.296875,-30959.20898
29.3046875,-30957.41016
29.3125,-30953.5293
29.3203125,-30946.1875
29.328125,-30935.73242
29.3359375,-30923.04492
29.34375,-30909.97656
29.3515625,-30897.5332
29.359375,-30886.56641
29.3671875,-30877.76563
29.375,-30870.82227
29.3828125,-30865.85938
29.390625,-30862.45703
29.3984375,-30860.28906
29.40625,-30859.22461
29.4140625,-30858.19141
29.421875,-30855.36719
29.4296875,-30848.26758
29.4375,-30834.99805
29.4453125,-30815.92773
29.453125,-30793.38477
29.4609375,-30770.99805
29.46875,-30751.44922
29.4765625,-30734.58398
29.484375,-30719.2832
29.4921875,-30704.03906
29.5,-30689.49805
29.5078125,-30678.72461
29.515625,-30673.89453
29.5234375,-30675.52344
29.53125,-30680.39063
29.5390625,-30683.81445
29.546875,-30682.96094
29.5546875,-30678.31445
29.5625,-30673.5918
29.5703125,-30672.64648
29.578125,-30676.39258
29.5859375,-30682.27344
29.59375,-30685.25977
29.6015625,-30681.51172
29.609375,-30670.24023
29.6171875,-30653.10742
29.625,-30633.71289
29.6328125,-30613.92188
29.640625,-30593.57617
29.6484375,-30571.1543
29.65625,-30544.32617
29.6640625,-30512.7793
29.671875,-30477.56055
29.6796875,-30441.15234
29.6875,-30406.58203
29.6953125,-30375.70313
29.703125,-30348.77734
29.7109375,-30324.2207
29.71875,-30299.24219
29.7265625,-30271.69336
29.734375,-30240.60938
29.7421875,-30207.38281
29.75,-30174.89844
29.7578125,-30145.64453
29.765625,-30121.83398
29.7734375,-30103.63086
29.78125,-30090.26172
29.7890625,-30080.875
29.796875,-30073.9043
29.8046875,-30068.2168
29.8125,-30061.76563
29.8203125,-30052.58203
29.828125,-30039.88086
29.8359375,-30024.76758
29.84375,-30010.49023
29.8515625,-30000.67773
29.859375,-29996.8457
29.8671875,-29997.39844
29.875,-29997.32031
29.8828125,-29991.35156
29.890625,-29976.88867
29.8984375,-29954.99219
29.90625,-29931.03516
29.9140625,-29910.44141
29.921875,-29896.35938
29.9296875,-29888.41406
29.9375,-29882.69141
29.9453125,-29875.43164
29.953125,-29864.34961
29.9609375,-29850.08594
29.96875,-29835.55859
29.9765625,-29824.04102
29.984375,-29817.88086
29.9921875,-29817.62109
30,-29821.49219
30.0078125,-29826.75977
30.015625,-29829.29492
30.0234375,-29825.53711
30.03125,-29813.5918
30.0390625,-29793.79297
30.046875,-29770.44531
30.0546875,-29749.30273
30.0625,-29735.84766
30.0703125,-29732.875
30.078125,-29738.16602
30.0859375,-29746.4082
30.09375,-29751.0332
30.1015625,-29747.94336
30.109375,-29737.57617
30.1171875,-29724.14453
30.125,-29713.23828
30.1328125,-29708.48438
30.140625,-29709.24219
30.1484375,-29712.11719
30.15625,-29712.1582
30.1640625,-29706.36133
30.171875,-29694.75977
30.1796875,-29679.00781
30.1875,-29662.01563
30.1953125,-29645.01172
30.203125,-29627.84375
30.2109375,-29609.7207
30.21875,-29589.35938
30.2265625,-29566.00977
30.234375,-29538.86133
30.2421875,-29507.37109
30.25,-29472.17578
30.2578125,-29435.52344
30.265625,-29401.44922
30.2734375,-29374.16602
30.28125,-29355.21289
30.2890625,-29343.12109
30.296875,-29332.86719
30.3046875,-29319.58984
30.3125,-29301.5625
30.3203125,-29280.72852
30.328125,-29262.51563
30.3359375,-29251.09766
30.34375,-29247.0918
30.3515625,-29247.27539
30.359375,-29246.07813
30.3671875,-29239.57227
30.375,-29227.19922
30.3828125,-29211.83398
30.390625,-29197.97852
30.3984375,-29188.85547
30.40625,-29185.47266
30.4140625,-29186.4668
30.421875,-29188.84961
30.4296875,-29190.4375
30.4375,-29189.33203
30.4453125,-29184.89844
30.453125,-29177.33008
30.4609375,-29166.67773
30.46875,-29154.12109
30.4765625,-29140.78711
30.484375,-29128.24414
30.4921875,-29118.36133
30.5,-29111.88867
30.5078125,-29108.34961
30.515625,-29105.61133
30.5234375,-29100.77148
30.53125,-29092.01953
30.5390625,-29079.51758
30.546875,-29066.09961
30.5546875,-29055.58594
30.5625,-29050.0918
30.5703125,-29049.625
30.578125,-29051.08203
30.5859375,-29051.03125
30.59375,-29048.00781
30.6015625,-29042.67773
30.609375,-29038.00195
30.6171875,-29035.59375
30.625,-29034.45508
30.6328125,-29031.45898
30.640625,-29022.95313
30.6484375,-29007.95508
30.65625,-28988.89258
30.6640625,-28970.36328
30.671875,-28956.63672
30.6796875,-28948.58789
30.6875,-28943.58398
30.6953125,-28936.91602
30.703125,-28923.9668
30.7109375,-28903.60742
30.71875,-28877.25
30.7265625,-28848.34961
30.734375,-28820.29883
30.7421875,-28794.23438
30.75,-28770.20313
30.7578125,-28747.08984
30.765625,-28724.3418
30.7734375,-28702.84961
30.78125,-28683.83398
30.7890625,-28668.25391
30.796875,-28655.67969
30.8046875,-28644.44141
30.8125,-28633.08789
30.8203125,-28621.04688
30.828125,-28609.68359
30.8359375,-28601.25781
30.84375,-28596.82031
30.8515625,-28596.22266
30.859375,-28596.76367
30.8671875,-28595.20117
30.875,-28589.58203
30.8828125,-28579.43945
30.890625,-28566.74805
30.8984375,-28553.38281
30.90625,-28540.11328
30.9140625,-28526.43164
30.921875,-28510.80078
30.9296875,-28492.60352
30.9375,-28473.05469
30.9453125,-28454.99805
30.953125,-28441.99414
30.9609375,-28435.78711
30.96875,-28435.7207
30.9765625,-28438.53516
30.984375,-28439.37891
30.9921875,-28435.32227
31,-28425.79297
31.0078125,-28413.44531
31.015625,-28403.12109
31.0234375,-28398.33984
31.03125,-28400.375
31.0390625,-28406.49609
31.046875,-28411.70313
31.0546875,-28411.27734
31.0625,-28402.82813
31.0703125,-28387.46875
31.078125,-28368.80469
31.0859375,-28350.86328
31.09375,-28336.88281
31.1015625,-28327.99219
31.109375,-28324.18945
31.1171875,-28324.72656
31.125,-28327.71875
31.1328125,-28331.28906
31.140625,-28332.45703
31.1484375,-28328.80469
31.15625,-28320.16406
31.1640625,-28308.62695
31.171875,-28298.88086
31.1796875,-28294.75586
31.1875,-28296.99023
31.1953125,-28302.44141
31.203125,-28305.47852
31.2109375,-28301.78711
31.21875,-28291.13086
31.2265625,-28277.14453
31.234375,-28265.40039
31.2421875,-28258.45313
31.25,-28254.37695
31.2578125,-28247.47852
31.265625,-28231.2793
31.2734375,-28203.74023
31.28125,-28167.51172
31.2890625,-28129.05078
31.296875,-28095.2832
31.3046875,-28069.44336
31.3125,-28050.99219
31.3203125,-28035.94336
31.328125,-28019.71484
31.3359375,-27999.35156
31.34375,-27974.1582
31.3515625,-27945.63086
31.359375,-27916.60742
31.3671875,-27889.97461
31.375,-27868.82422
31.3828125,-27854.59961
31.390625,-27847.23828
31.3984375,-27844.67383
31.40625,-27842.91016
31.4140625,-27838.83203
31.421875,-27830.62695
31.4296875,-27819.28711
31.4375,-27808.17969
31.4453125,-27800.46484
31.453125,-27798.16992
31.4609375,-27800.38281
31.46875,-27804.25391
31.4765625,-27806.82617
31.484375,-27806.47852
31.4921875,-27803.88672
31.5,-27801.17578
31.5078125,-27799.7832
31.515625,-27800.08789
31.5234375,-27799.95117
31.53125,-27796.66406
31.5390625,-27788.69141
31.546875,-27776.39063
31.5546875,-27763.35156
31.5625,-27753.48047
31.5703125,-27749.26953
31.578125,-27750.32422
31.5859375,-27752.72852
31.59375,-27751.66406
31.6015625,-27743.58203
31.609375,-27728.36523
31.6171875,-27709.61328
31.625,-27692.62891
31.6328125,-27682.03516
31.640625,-27679.70898
31.6484375,-27683.80664
31.65625,-27690.96484
31.6640625,-27697.2207
31.671875,-27700.63086
31.6796875,-27701.75977
31.6875,-27702.23047
31.6953125,-27704.38086
31.703125,-27708.49023
31.7109375,-27712.81055
31.71875,-27714.61523
31.7265625,-27711.28906
31.734375,-27702.69531
31.7421875,-27691.1582
31.75,-27680.55664
31.7578125,-27674.38281
31.765625,-27673.44141
31.7734375,-27675.71484
31.78125,-27677.33203
31.7890625,-27674.1875
31.796875,-27664.83398
31.8046875,-27649.76172
31.8125,-27631.33789
31.8203125,-27612.24609
31.828125,-27593.74609
31.8359375,-27576.77344
31.84375,-27561.24414
31.8515625,-27547.06055
31.859375,-27534.47852
31.8671875,-27523.31836
31.875,-27513.39453
31.8828125,-27504.20898
31.890625,-27495.24609
31.8984375,-27486.29492
31.90625,-27476.93359
31.9140625,-27467.03906
31.921875,-27456.93359
31.9296875,-27447.36523
31.9375,-27440.71875
31.9453125,-27439.05664
31.953125,-27443.5293
31.9609375,-27453.11914
31.96875,-27463.94922
31.9765625,-27471.98633
31.984375,-27474.01758
31.9921875,-27469.70508
32,-27461.67773
32.0078125,-27453.73242
32.015625,-27449.0332
32.0234375,-27448.79688
32.03125,-27452.38672
32.0390625,-27458.33008
32.046875,-27464.70508
32.0546875,-27469.99609
32.0625,-27472.9082
32.0703125,-27471.98242
32.078125,-27467.0625
32.0859375,-27458.52148
32.09375,-27448.04297
32.1015625,-27438.08789
32.109375,-27430.29492
32.1171875,-27426.03906
32.125,-27424.99023
32.1328125,-27425.85156
32.140625,-27427.00781
32.1484375,-27426.44727
32.15625,-27422.7832
32.1640625,-27415.40234
32.171875,-27404.81055
32.1796875,-27392.91211
32.1875,-27381.88867
32.1953125,-27373.76563
32.203125,-27369.30469
32.2109375,-27367.36328
32.21875,-27366.62695
32.2265625,-27365.56836
32.234375,-27364.07813
32.2421875,-27363.59766
32.25,-27365.54688
32.2578125,-27371.29688
32.265625,-27380.07617
32.2734375,-27389.42578
32.28125,-27396.33008
32.2890625,-27398.27344
32.296875,-27394.93555
32.3046875,-27388.25977
32.3125,-27381.55469
32.3203125,-27378.14258
32.328125,-27379.33008
32.3359375,-27384.38086
32.34375,-27390.96875
32.3515625,-27396.12109
32.359375,-27398.70117
32.3671875,-27398.48438
32.375,-27396.16992
32.3828125,-27392.32617
32.390625,-27386.05664
32.3984375,-27376.63281
32.40625,-27363.47266
32.4140625,-27347.41406
32.421875,-27330.7168
32.4296875,-27315.32031
32.4375,-27301.9043
32.4453125,-27289.14063
32.453125,-27274.53125
32.4609375,-27256.56055
32.46875,-27235.47461
32.4765625,-27213.93555
32.484375,-27195.42969
32.4921875,-27181.80273
32.5,-27173.31641
32.5078125,-27167.79883
32.515625,-27162.58398
32.5234375,-27156.37109
32.53125,-27148.93164
32.5390625,-27141.66406
32.546875,-27135.25391
32.5546875,-27129.21484
32.5625,-27122.29102
32.5703125,-27113.14648
32.578125,-27102.07813
32.5859375,-27091.36719
32.59375,-27084.35352
32.6015625,-27084.03711
32.609375,-27090.55859
32.6171875,-27100.96094
32.625,-27109.88086
32.6328125,-27111.32227
32.640625,-27102.62695
32.6484375,-27084.88672
32.65625,-27063.23242
32.6640625,-27044.71875
32.671875,-27034.33789
32.6796875,-27033.89648
32.6875,-27040.66602
32.6953125,-27049.44727
32.703125,-27055.24023
32.7109375,-27055.08203
32.71875,-27049.09766
32.7265625,-27039.63867
32.734375,-27029.5918
32.7421875,-27021.43359
32.75,-27015.69336
32.7578125,-27011.65234
32.765625,-27007.8457
32.7734375,-27002.64063
32.78125,-26996.38867
32.7890625,-26990.55273
32.796875,-26987.625
32.8046875,-26989.81836
32.8125,-26996.73633
32.8203125,-27005.90039
32.828125,-27012.83789
32.8359375,-27013.76172
32.84375,-27007.7832
32.8515625,-26997.41602
32.859375,-26987.58008
32.8671875,-26982.9375
32.875,-26985.09375
32.8828125,-26992.64063
32.890625,-27001.30469
32.8984375,-27007.06836
32.90625,-27007.99219
32.9140625,-27004.2832
32.921875,-26998.57813
32.9296875,-26993.05469
32.9375,-26988.7168
32.9453125,-26985.45313
32.953125,-26982.09766
32.9609375,-26978.60352
32.96875,-26975.70703
32.9765625,-26974.8457
32.984375,-26977.08008
32.9921875,-26981.73438
33,-26986.44141
33.0078125,-26988.00391
33.015625,-26983.28711
33.0234375,-26971.51367
33.03125,-26953.57031
33.0390625,-26932.1543
33.046875,-26910.4375
33.0546875,-26890.33398
33.0625,-26873.23438
33.0703125,-26858.85938
33.078125,-26846.30859
33.0859375,-26834.62695
33.09375,-26822.49023
33.1015625,-26809.06445
33.109375,-26793.74219
33.1171875,-26776.58398
33.125,-26758.56445
33.1328125,-26741.14258
33.140625,-26726.10742
33.1484375,-26715.01367
33.15625,-26708.29297
33.1640625,-26706.04688
33.171875,-26706.91016
33.1796875,-26709.10352
33.1875,-26710.82227
33.1953125,-26710.24805
33.203125,-26707.48047
33.2109375,-26703.49023
33.21875,-26700.04883
33.2265625,-26698.79883
33.234375,-26699.55469
33.2421875,-26700.80859
33.25,-26700.41406
33.2578125,-26697.39063
33.265625,-26693.19922
33.2734375,-26690.77148
33.28125,-26692.96875
33.2890625,-26700.10938
33.296875,-26708.77734
33.3046875,-26714.4082
33.3125,-26713.05273
33.3203125,-26704.71289
33.328125,-26693.42773
33.3359375,-26684.18359
33.34375,-26680.69922
33.3515625,-26682.05273
33.359375,-26683.83984
33.3671875,-26681.57031
33.375,-26673.48828
33.3828125,-26662.58398
33.390625,-26654.48242
33.3984375,-26653.87305
33.40625,-26661.5293
33.4140625,-26673.36719
33.421875,-26683.4043
33.4296875,-26687.31641
33.4375,-26684.56836
33.4453125,-26679.14453
33.453125,-26675.59961
33.4609375,-26676.45898
33.46875,-26680.61133
33.4765625,-26683.66211
33.484375,-26682.02539
33.4921875,-26674.5
33.5,-26663.50977
33.5078125,-26653.86914
33.515625,-26649.46094
33.5234375,-26651.59375
33.53125,-26658.24414
33.5390625,-26665.40039
33.546875,-26669.56641
33.5546875,-26669.04492
33.5625,-26664.96875
33.5703125,-26660.26563
33.578125,-26657.67578
33.5859375,-26659.45117
33.59375,-26665.45898
33.6015625,-26673.96875
33.609375,-26682.35547
33.6171875,-26687.29688
33.625,-26686.89648
33.6328125,-26680.24805
33.640625,-26668.19336
33.6484375,-26653.22461
33.65625,-26638.0957
33.6640625,-26625.02539
33.671875,-26614.36914
33.6796875,-26604.35156
33.6875,-26592.35352
33.6953125,-26576.04297
33.703125,-26555.53711
33.7109375,-26533.54688
33.71875,-26513.69922
33.7265625,-26499.51758
33.734375,-26491.34961
33.7421875,-26486.72852
33.75,-26481.79102
33.7578125,-26472.9043
33.765625,-26459.66602
33.7734375,-26444.1582
33.78125,-26430.03516
33.7890625,-26420.67773
33.796875,-26417.07227
33.8046875,-26417.96875
33.8125,-26420.68555
33.8203125,-26422.53906
33.828125,-26422.52148
33.8359375,-26421.10352
33.84375,-26420.17383
33.8515625,-26421.69531
33.859375,-26426.04297
33.8671875,-26432.60156
33.875,-26438.94336
33.8828125,-26442.57031
33.890625,-26442.38672
33.8984375,-26438.58594
33.90625,-26433.49219
33.9140625,-26429.30469
33.921875,-26427.13086
33.9296875,-26426.55859
33.9375,-26425.70898
33.9453125,-26422.91992
33.953125,-26417.79688
33.9609375,-26411.41406
33.96875,-26406.07422
33.9765625,-26403.43359
33.984375,-26404.10156
33.9921875,-26407.19727
34,-26410.31445
34.0078125,-26411.78711
34.015625,-26410.25781
34.0234375,-26405.86133
34.03125,-26400.24023
34.0390625,-26395.02734
34.046875,-26391.96484
34.0546875,-26391.18164
34.0625,-26391.53516
34.0703125,-26391.36133
34.078125,-26389.4375
34.0859375,-26386.17773
34.09375,-26383.55078
34.1015625,-26383.68555
34.109375,-26388.10938
34.1171875,-26395.76563
34.125,-26403.99023
34.1328125,-26409.70898
34.140625,-26410.64648
34.1484375,-26407.60547
34.15625,-26402.91016
34.1640625,-26399.45898
34.171875,-26399.07813
34.1796875,-26400.68555
34.1875,-26401.73242
34.1953125,-26398.84766
34.203125,-26390.08398
34.2109375,-26376.02539
34.21875,-26359.20703
34.2265625,-26342.94531
34.234375,-26329.70703
34.2421875,-26319.88867
34.25,-26312.96875
34.2578125,-26307.55859
34.265625,-26303.07227
34.2734375,-26299.85156
34.28125,-26298.10547
34.2890625,-26298.49414
34.296875,-26300.61719
34.3046875,-26303.7832
34.3125,-26307.54688
34.3203125,-26311.03711
34.328125,-26313.83594
34.3359375,-26315.0625
34.34375,-26313.99219
34.3515625,-26310.62891
34.359375,-26305.89258
34.3671875,-26301.63086
34.375,-26299.75391
34.3828125,-26300.92969
34.390625,-26305.11719
34.3984375,-26310.88281
34.40625,-26317.02148
34.4140625,-26322.99805
34.421875,-26328.41016
34.4296875,-26333.73633
34.4375,-26338.62109
34.4453125,-26342.34766
34.453125,-26344.32617
34.4609375,-26344.00977
34.46875,-26341.91211
34.4765625,-26339.03125
34.484375,-26336.70508
34.4921875,-26336.26172
34.5,-26338.39844
34.5078125,-26343.21484
34.515625,-26350.30859
34.5234375,-26358.59375
34.53125,-26367.50781
34.5390625,-26376.13672
34.546875,-26383.85742
34.5546875,-26389.92383
34.5625,-26392.70313
34.5703125,-26391.18359
34.578125,-26384.57813
34.5859375,-26373.76172
34.59375,-26361.78125
34.6015625,-26352.53906
34.609375,-26349.7832
34.6171875,-26354.76563
34.625,-26365.53125
34.6328125,-26377.67578
34.640625,-26386.13477
34.6484375,-26387.93555
34.65625,-26383.61719
34.6640625,-26376.38672
34.671875,-26371.20508
34.6796875,-26371.1875
34.6875,-26376.85156
34.6953125,-26386.19531
34.703125,-26395.67773
34.7109375,-26403.42578
34.71875,-26409.23047
34.7265625,-26414.75977
34.734375,-26422.39258
34.7421875,-26433.13086
34.75,-26446.36523
34.7578125,-26459.71484
34.765625,-26470.25195
34.7734375,-26475.93945
34.78125,-26476.08984
34.7890625,-26472.0918
34.796875,-26466.58008
34.8046875,-26462.00391
34.8125,-26460.49219
34.8203125,-26461.98633
34.828125,-26465.12891
34.8359375,-26468.12109
34.84375,-26469.33594
34.8515625,-26469.36133
34.859375,-26469.72266
34.8671875,-26472.26953
34.875,-26478.01758
34.8828125,-26485.87109
34.890625,-26493.61133
34.8984375,-26498.80469
34.90625,-26500.16992
34.9140625,-26498.28125
34.921875,-26494.66406
34.9296875,-26491.26953
34.9375,-26489.53516
34.9453125,-26489.71094
34.953125,-26492.16797
34.9609375,-26496.28906
34.96875,-26501.04297
34.9765625,-26504.76563
34.984375,-26504.84766
34.9921875,-26499.89258
35,-26489.79102
35.0078125,-26476.23047
35.015625,-26462.36133
35.0234375,-26450.31836
35.03125,-26440.34375
35.0390625,-26430.56641
35.046875,-26418.45508
35.0546875,-26403.08789
35.0625,-26385.58594
35.0703125,-26368.92969
35.078125,-26355.9375
35.0859375,-26347.26172
35.09375,-26342.41992
35.1015625,-26339.83203
35.109375,-26338.99609
35.1171875,-26340.94531
35.125,-26346.50391
35.1328125,-26355.91797
35.140625,-26367.01367
35.1484375,-26376.38672
35.15625,-26381.53125
35.1640625,-26381.92578
35.171875,-26379.67383
35.1796875,-26377.96289
35.1875,-26379.08203
35.1953125,-26383.66602
35.203125,-26390.37891
35.2109375,-26397.69922
35.21875,-26404.79297
35.2265625,-26411.16992
35.234375,-26417.23438
35.2421875,-26422.37305
35.25,-26425.61328
35.2578125,-26426.4082
35.265625,-26424.56641
35.2734375,-26421.45117
35.28125,-26418.22266
35.2890625,-26415.29883
35.296875,-26412.39844
35.3046875,-26408.79883
35.3125,-26404.9043
35.3203125,-26402.51758
35.328125,-26404.02734
35.3359375,-26411.22461
35.34375,-26423.36719
35.3515625,-26437.70508
35.359375,-26450.55859
35.3671875,-26458.64453
35.375,-26461.48047
35.3828125,-26460.125
35.390625,-26456.9043
35.3984375,-26454.35938
35.40625,-26453.81836
35.4140625,-26456.33398
35.421875,-26461.69922
35.4296875,-26468.85547
35.4375,-26476.00195
35.4453125,-26481.01953
35.453125,-26482.90625
35.4609375,-26482.67383
35.46875,-26483.16602
35.4765625,-26488.0293
35.484375,-26498.74414
35.4921875,-26513.75586
35.5,-26528.81055
35.5078125,-26538.41992
35.515625,-26540.60742
35.5234375,-26536.69141
35.53125,-26531.03906
35.5390625,-26528.58008
35.546875,-26531.37695
35.5546875,-26538.85742
35.5625,-26548.01563
35.5703125,-26555.87695
35.578125,-26560.87891
35.5859375,-26562.45313
35.59375,-26560.17578
35.6015625,-26552.87695
35.609375,-26538.75391
35.6171875,-26517.65234
35.625,-26491.38477
35.6328125,-26464.44336
35.640625,-26442.09375
35.6484375,-26427.42773
35.65625,-26420.94141
35.6640625,-26419.45117
35.671875,-26418.49805
35.6796875,-26414.75195
35.6875,-26406.71094
35.6953125,-26395.67969
35.703125,-26383.58984
35.7109375,-26371.92383
35.71875,-26361.05859
35.7265625,-26350.49023
35.734375,-26340.16016
35.7421875,-26331.29102
35.75,-26325.69336
35.7578125,-26325.41211
35.765625,-26330.12695
35.7734375,-26337.25195
35.78125,-26342.59766
35.7890625,-26341.88867
35.796875,-26334.22266
35.8046875,-26321.91992
35.8125,-26310.125
35.8203125,-26304.3418
35.828125,-26306.81641
35.8359375,-26315.93945
35.84375,-26326.22461
35.8515625,-26331.39453
35.859375,-26327.71094
35.8671875,-26315.63672
35.875,-26299.625
35.8828125,-26285.5918
35.890625,-26277.3125
35.8984375,-26275.58594
35.90625,-26277.52148
35.9140625,-26279.62305
35.921875,-26280.0918
35.9296875,-26279.27344
35.9375,-26279.7793
35.9453125,-26282.98047
35.953125,-26287.78711
35.9609375,-26291
35.96875,-26288.8125
35.9765625,-26280.11523
35.984375,-26267.25
35.9921875,-26254.94531
36,-26247.64648
36.0078125,-26246.36328
36.015625,-26248.79883
36.0234375,-26250.82031
36.03125,-26249.12109
36.0390625,-26244.10742
36.046875,-26238.33203
36.0546875,-26234.83398
36.0625,-26234.61719
36.0703125,-26235.33398
36.078125,-26234.20898
36.0859375,-26229.42188
36.09375,-26222.14258
36.1015625,-26215.87695
36.109375,-26213.33594
36.1171875,-26214.69727
36.125,-26216.99805
36.1328125,-26216.26563
36.140625,-26210.5957
36.1484375,-26201.26758
36.15625,-26192.33984
36.1640625,-26187.71289
36.171875,-26188.24023
36.1796875,-26192.17188
36.1875,-26195.72656
36.1953125,-26196.46484
36.203125,-26194.96484
36.2109375,-26193.72656
36.21875,-26196.2207
36.2265625,-26203.40234
36.234375,-26213.26758
36.2421875,-26222.02539
36.25,-26225.75391
36.2578125,-26222.91016
36.265625,-26214.53125
36.2734375,-26203.29883
36.28125,-26191.97266
36.2890625,-26181.58203
36.296875,-26171.75195
36.3046875,-26161.42969
36.3125,-26149.68359
36.3203125,-26137.47852
36.328125,-26126.20508
36.3359375,-26117.37305
36.34375,-26111.69336
36.3515625,-26108.18945
36.359375,-26106.04297
36.3671875,-26104.47266
36.375,-26103.6875
36.3828125,-26104.67188
36.390625,-26107.70508
36.3984375,-26112.08594
36.40625,-26116.00391
36.4140625,-26117.63281
36.421875,-26116.64258
36.4296875,-26114.07813
36.4375,-26112.08789
36.4453125,-26112.17773
36.453125,-26113.70898
36.4609375,-26115.32813
36.46875,-26115.27734
36.4765625,-26113.60742
36.484375,-26112.56055
36.4921875,-26114.49023
36.5,-26120.89063
36.5078125,-26129.99805
36.515625,-26137.80859
36.5234375,-26140.69531
36.53125,-26137.45508
36.5390625,-26130.75781
36.546875,-26125.44727
36.5546875,-26125.39258
36.5625,-26131.13281
36.5703125,-26138.92578
36.578125,-26143.42773
36.5859375,-26141.00977
36.59375,-26131.79297
36.6015625,-26120.75391
36.609375,-26113.88086
36.6171875,-26115.23047
36.625,-26124.68555
36.6328125,-26137.42969
36.640625,-26147.7207
36.6484375,-26151.20508
36.65625,-26147.47852
36.6640625,-26140.17969
36.671875,-26134.44922
36.6796875,-26134.5625
36.6875,-26141.89258
36.6953125,-26154.48242
36.703125,-26168.72266
36.7109375,-26180.57813
36.71875,-26187.6543
36.7265625,-26189.57617
36.734375,-26187.20313
36.7421875,-26182.98438
36.75,-26178.99023
36.7578125,-26176.87695
36.765625,-26177.62109
36.7734375,-26180.41992
36.78125,-26183.86133
36.7890625,-26185.48047
36.796875,-26183.27539
36.8046875,-26177.01172
36.8125,-26168.69336
36.8203125,-26162.48438
36.828125,-26162.9707
36.8359375,-26172.8457
36.84375,-26191.74414
36.8515625,-26215.46484
36.859375,-26238.27734
36.8671875,-26255.33984
36.875,-26264.43164
36.8828125,-26267.7832
36.890625,-26269.45703
36.8984375,-26273.42188
36.90625,-26281.20898
36.9140625,-26290.31445
36.921875,-26296.46289
36.9296875,-26295.29297
36.9375,-26285.24805
36.9453125,-26268.56055
36.953125,-26249.75195
36.9609375,-26233.45508
36.96875,-26222.05078
36.9765625,-26214.57031
36.984375,-26208.63086
36.9921875,-26201.50977
37,-26192.54688
37.0078125,-26182.73438
37.015625,-26173.55078
37.0234375,-26166.40625
37.03125,-26160.85352
37.0390625,-26155.69922
37.046875,-26150.19727
37.0546875,-26144.00195
37.0625,-26137.92773
37.0703125,-26132.33594
37.078125,-26126.9375
37.0859375,-26121.08984
37.09375,-26114.36719
37.1015625,-26107.53516
37.109375,-26102.32813
37.1171875,-26100.11328
37.125,-26101.73242
37.1328125,-26106.17969
37.140625,-26112.04102
37.1484375,-26118.39258
37.15625,-26124.72656
37.1640625,-26131.79102
37.171875,-26139.50977
37.1796875,-26147.05273
37.1875,-26153.33594
37.1953125,-26157.37109
37.203125,-26160.03516
37.2109375,-26163.16992
37.21875,-26168.84375
37.2265625,-26177.98828
37.234375,-26189.375
37.2421875,-26200.21484
37.25,-26207.44336
37.2578125,-26208.82227
37.265625,-26204.96875
37.2734375,-26198.43359
37.28125,-26193.49023
37.2890625,-26194.30469
37.296875,-26202.44531
37.3046875,-26216.96094
37.3125,-26233.46875
37.3203125,-26246.49609
37.328125,-26252.29102
37.3359375,-26250.23828
37.34375,-26243.82813
37.3515625,-26238.42383
37.359375,-26238.67578
37.3671875,-26246.35547
37.375,-26259.58203
37.3828125,-26274.57031
37.390625,-26287.91406
37.3984375,-26297.92188
37.40625,-26305.92969
37.4140625,-26314
37.421875,-26324.03516
37.4296875,-26336.49609
37.4375,-26349.77734
37.4453125,-26362.28711
37.453125,-26372.3457
37.4609375,-26379.21484
37.46875,-26383.02539
37.4765625,-26383.61914
37.484375,-26380.96484
37.4921875,-26375.14258
37.5,-26367.18359
37.5078125,-26359.69922
37.515625,-26355.39648
37.5234375,-26356.09375
37.53125,-26361.03906
37.5390625,-26366.46289
37.546875,-26368.38672
37.5546875,-26364.03711
37.5625,-26354.51563
37.5703125,-26344.34766
37.578125,-26338.42773
37.5859375,-26340.22266
37.59375,-26348.92773
37.6015625,-26360.73047
37.609375,-26371.55664
37.6171875,-26379.01172
37.625,-26383.78516
37.6328125,-26387.98047
37.640625,-26392.98438
37.6484375,-26398.34766
37.65625,-26401.86133
37.6640625,-26401.96484
37.671875,-26399.25781
37.6796875,-26396.20703
37.6875,-26396.58789
37.6953125,-26402.05664
37.703125,-26411.70508
37.7109375,-26422.66211
37.71875,-26431.26367
37.7265625,-26436.04688
37.734375,-26437.15039
37.7421875,-26435.97266
37.75,-26434.18164
37.7578125,-26432.54102
37.765625,-26431.66016
37.7734375,-26432.17969
37.78125,-26434.66992
37.7890625,-26439.23047
37.796875,-26444.35156
37.8046875,-26447.80469
37.8125,-26447.80273
37.8203125,-26444.21289
37.828125,-26440.10938
37.8359375,-26439.33984
37.84375,-26444.91211
37.8515625,-26457
37.859375,-26472.07813
37.8671875,-26485.66016
37.875,-26493.54883
37.8828125,-26493.90039
37.890625,-26487.64063
37.8984375,-26477.02734
37.90625,-26465.04492
37.9140625,-26454.43555
37.921875,-26447.2793
37.9296875,-26444.91211
37.9375,-26446.75391
37.9453125,-26450.49414
37.953125,-26452.50391
37.9609375,-26449.06641
37.96875,-26439.54102
37.9765625,-26426.34375
37.984375,-26414.78906
37.9921875,-26410.58594
38,-26416.35938
38.0078125,-26430.82813
38.015625,-26448.97656
38.0234375,-26464.97656
38.03125,-26475.39063
38.0390625,-26480.24219
38.046875,-26482.9707
38.0546875,-26487.93555
38.0625,-26497.80469
38.0703125,-26512.31445
38.078125,-26527.94531
38.0859375,-26540.18555
38.09375,-26545.5625
38.1015625,-26542.88281
38.109375,-26534.75
38.1171875,-26525.4082
38.125,-26519.56641
38.1328125,-26520.56055
38.140625,-26528.45703
38.1484375,-26541.30469
38.15625,-26555.25977
38.1640625,-26566.76953
38.171875,-26574.35352
38.1796875,-26578.66797
38.1875,-26582.24023
38.1953125,-26587.66797
38.203125,-26595.84766
38.2109375,-26605.5957
38.21875,-26613.76172
38.2265625,-26617.66406
38.234375,-26616.83594
38.2421875,-26613.37109
38.25,-26612.11523
38.2578125,-26617.10547
38.265625,-26629.63672
38.2734375,-26647.30859
38.28125,-26664.21875
38.2890625,-26674.78906
38.296875,-26675.70508
38.3046875,-26667.93359
38.3125,-26656.15625
38.3203125,-26646.04883
38.328125,-26641.71094
38.3359375,-26643.71289
38.34375,-26648.92969
38.3515625,-26652.80273
38.359375,-26651.11523
38.3671875,-26642.53125
38.375,-26629.02344
38.3828125,-26614.32031
38.390625,-26603.16992
38.3984375,-26598.08203
38.40625,-26598.93164
38.4140625,-26603.36328
38.421875,-26607.49805
38.4296875,-26608.8125
38.4375,-26606.4375
38.4453125,-26601.6543
38.453125,-26596.91602
38.4609375,-26594.29883
38.46875,-26594.89258
38.4765625,-26598.7207
38.484375,-26604.85938
38.4921875,-26612.76953
38.5,-26621.37109
38.5078125,-26629.4668
38.515625,-26635.81445
38.5234375,-26639.00586
38.53125,-26639.59961
38.5390625,-26639.29688
38.546875,-26640.75586
38.5546875,-26646.08008
38.5625,-26654.38867
38.5703125,-26662.66797
38.578125,-26666.52344
38.5859375,-26663.31445
38.59375,-26654.30273
38.6015625,-26644.37109
38.609375,-26639.94141
38.6171875,-26645.54688
38.625,-26661.11133
38.6328125,-26682.7793
38.640625,-26704.15234
38.6484375,-26720.09961
38.65625,-26728.75391
38.6640625,-26731.15625
38.671875,-26731.14063
38.6796875,-26732.16211
38.6875,-26736.44922
38.6953125,-26744.75781
38.703125,-26755.83789
38.7109375,-26768
38.71875,-26778.95508
38.7265625,-26786.77734
38.734375,-26790.72461
38.7421875,-26791.37109
38.75,-26790.73828
38.7578125,-26791.42578
38.765625,-26794.96289
38.7734375,-26801.94141
38.78125,-26810.97461
38.7890625,-26820.36328
38.796875,-26828.95508
38.8046875,-26835.90039
38.8125,-26841.53711
38.8203125,-26845.49805
38.828125,-26847.09961
38.8359375,-26846.20508
38.84375,-26843.52734
38.8515625,-26841.58594
38.859375,-26843.33008
38.8671875,-26850.57617
38.875,-26862.85352
38.8828125,-26877.16016
38.890625,-26890.05859
38.8984375,-26899.51563
38.90625,-26905.53711
38.9140625,-26910.54492
38.921875,-26916.49805
38.9296875,-26924.19531
38.9375,-26932.96484
38.9453125,-26940.90039
38.953125,-26947.3457
38.9609375,-26952.02734
38.96875,-26955.21875
38.9765625,-26957.18164
38.984375,-26957.59766
38.9921875,-26956.76367
39,-26955.84961
39.0078125,-26956.69727
39.015625,-26960.96094
39.0234375,-26968.33008
39.03125,-26976.84766
39.0390625,-26983.88867
39.046875,-26987.63477
39.0546875,-26989.36719
39.0625,-26991.74414
39.0703125,-26997.69141
39.078125,-27008.44141
39.0859375,-27022.20117
39.09375,-27036.51367
39.1015625,-27049.0332
39.109375,-27059.30469
39.1171875,-27068.76953
39.125,-27078.73828
39.1328125,-27089.40039
39.140625,-27099.09766
39.1484375,-27105.28125
39.15625,-27106.31836
39.1640625,-27102.01367
39.171875,-27093.96094
39.1796875,-27084.27344
39.1875,-27074.00781
39.1953125,-27063.97461
39.203125,-27053.99414
39.2109375,-27044.32031
39.21875,-27035.81055
39.2265625,-27028.68555
39.234375,-27023.01758
39.2421875,-27017.44922
39.25,-27010.41016
39.2578125,-27001.60156
39.265625,-26992.3125
39.2734375,-26985.44727
39.28125,-26983.84766
39.2890625,-26988.4668
39.296875,-26997.98047
39.3046875,-27008.87109
39.3125,-27017.73438
39.3203125,-27022.65234
39.328125,-27023.30664
39.3359375,-27021.56836
39.34375,-27019.21875
39.3515625,-27017.76758
39.359375,-27018.44336
39.3671875,-27021.51172
39.375,-27027.50391
39.3828125,-27035.88281
39.390625,-27045.28516
39.3984375,-27054.07813
39.40625,-27060.73438
39.4140625,-27065.01953
39.421875,-27067.78906
39.4296875,-27069.99023
39.4375,-27072.01367
39.4453125,-27072.87109
39.453125,-27071.79688
39.4609375,-27069.50586
39.46875,-27068.27148
39.4765625,-27072.10547
39.484375,-27083.24609
39.4921875,-27100.77734
39.5,-27120.61523
39.5078125,-27136.57422
39.515625,-27144.62305
39.5234375,-27144.10742
39.53125,-27138.46875
39.5390625,-27133.40625
39.546875,-27133.68164
39.5546875,-27141.04883
39.5625,-27153.37695
39.5703125,-27165.64844
39.578125,-27173.00195
39.5859375,-27172.73242
39.59375,-27166.54297
39.6015625,-27159.94336
39.609375,-27159.14648
39.6171875,-27168.77344
39.625,-27187.91211
39.6328125,-27210.58789
39.640625,-27228.61523
39.6484375,-27234.98242
39.65625,-27228.28125
39.6640625,-27212.29883
39.671875,-27193.94922
39.6796875,-27179.55859
39.6875,-27171.72461
39.6953125,-27169.23047
39.703125,-27168.89844
39.7109375,-27167.69531
39.71875,-27165.11133
39.7265625,-27161.90625
39.734375,-27159.55078
39.7421875,-27158.8125
39.75,-27158.88086
39.7578125,-27159.29492
39.765625,-27159.62891
39.7734375,-27160.55273
39.78125,-27163.77344
39.7890625,-27170.47852
39.796875,-27181.48242
39.8046875,-27195.90234
39.8125,-27211.54492
39.8203125,-27225.60352
39.828125,-27235.46094
39.8359375,-27240.04492
39.84375,-27240.3457
39.8515625,-27238.60352
39.859375,-27238.05078
39.8671875,-27240.27734
39.875,-27245.22852
39.8828125,-27251.375
39.890625,-27256.44727
39.8984375,-27260.12109
39.90625,-27263.2832
39.9140625,-27267.77539
39.921875,-27274.88672
39.9296875,-27283.41602
39.9375,-27290.27734
39.9453125,-27291.53516
39.953125,-27284.74805
39.9609375,-27270.83789
39.96875,-27253.89258
39.9765625,-27239.82813
39.984375,-27233.6875
39.9921875,-27236.92188
40,-27247.64844
40.0078125,-27260.71094
40.015625,-27270.99219
40.0234375,-27275.70703
40.03125,-27274.85938
40.0390625,-27271.69922
40.046875,-27269.48633
40.0546875,-27269.86914
40.0625,-27272.26172
40.0703125,-27273.96094
40.078125,-27272.51172
40.0859375,-27266.82227
40.09375,-27257.61133
40.1015625,-27246.65039
40.109375,-27234.95703
40.1171875,-27222.48828
40.125,-27208.33789
40.1328125,-27191.60156
40.140625,-27173.65234
40.1484375,-27156.95703
40.15625,-27144.61328
40.1640625,-27138.38477
40.171875,-27136.79883
40.1796875,-27136.80273
40.1875,-27134.46289
40.1953125,-27127.74609
40.203125,-27117.93359
40.2109375,-27108.18555
40.21875,-27101.82031
40.2265625,-27099.60352
40.234375,-27099.05469
40.2421875,-27096.20703
40.25,-27088.07227
40.2578125,-27075.54297
40.265625,-27063.32617
40.2734375,-27056.96875
40.28125,-27060.33008
40.2890625,-27071.75781
40.296875,-27085.10938
40.3046875,-27093.07422
40.3125,-27090.80859
40.3203125,-27079.98633
40.328125,-27067.12305
40.3359375,-27060.26563
40.34375,-27064.33203
40.3515625,-27077.55078
40.359375,-27092.61523
40.3671875,-27100.47852
40.375,-27095.4707
40.3828125,-27078.8125
40.390625,-27057.49609
40.3984375,-27040.89648
40.40625,-27035.54883
40.4140625,-27041.46484
40.421875,-27053.66992
40.4296875,-27064.37695
40.4375,-27068.03125
40.4453125,-27063.98242
40.453125,-27055.46484
40.4609375,-27047.94531
40.46875,-27044.875
40.4765625,-27046.29297
40.484375,-27049.67773
40.4921875,-27051.70898
40.5,-27051.01367
40.5078125,-27048.76953
40.515625,-27047.68945
40.5234375,-27050.34961
40.53125,-27056.86719
40.5390625,-27065.05859
40.546875,-27071.34375
40.5546875,-27072.06445
40.5625,-27066.21289
40.5703125,-27054.74805
40.578125,-27040.63477
40.5859375,-27027.88281
40.59375,-27019.47656
40.6015625,-27017.72656
40.609375,-27022.81445
40.6171875,-27033.21289
40.625,-27046.0293
40.6328125,-27057.45898
40.640625,-27064.22266
40.6484375,-27064.67188
40.65625,-27059.36914
40.6640625,-27051.31836
40.671875,-27043.875
40.6796875,-27039.54297
40.6875,-27038.41602
40.6953125,-27037.55859
40.703125,-27033.60156
40.7109375,-27023.4707
40.71875,-27006.49219
40.7265625,-26984.73438
40.734375,-26961.08789
40.7421875,-26938.68945
40.75,-26918.85938
40.7578125,-26901.44531
40.765625,-26885.73828
40.7734375,-26871.19141
40.78125,-26858.14844
40.7890625,-26847.52148
40.796875,-26839.60742
40.8046875,-26834.32422
40.8125,-26830.10156
40.8203125,-26825.27344
40.828125,-26818.71289
40.8359375,-26810.05078
40.84375,-26801.06641
40.8515625,-26793.94727
40.859375,-26790.85938
40.8671875,-26792.92773
40.875,-26798.80469
40.8828125,-26805.94336
40.890625,-26810.95508
40.8984375,-26811.64453
40.90625,-26808.20508
40.9140625,-26802.80273
40.921875,-26798.40234
40.9296875,-26796.88672
40.9375,-26797.60742
40.9453125,-26798.83398
40.953125,-26798.37891
40.9609375,-26796.04688
40.96875,-26793.71094
40.9765625,-26793.37891
40.984375,-26796.49023
40.9921875,-26801.62695
41,-26805.83008
41.0078125,-26806.69531
41.015625,-26803.28516
41.0234375,-26797.17188
41.03125,-26790.20703
41.0390625,-26783.25977
41.046875,-26775.88281
41.0546875,-26767.25391
41.0625,-26758.0918
41.0703125,-26751.15625
41.078125,-26749.46289
41.0859375,-26754.83008
41.09375,-26765.17383
41.1015625,-26775.87891
41.109375,-26782.11914
41.1171875,-26781.02734
41.125,-26774.10352
41.1328125,-26764.94141
41.140625,-26757.33984
41.1484375,-26753.53711
41.15625,-26753.18945
41.1640625,-26755.12695
41.171875,-26758.34375
41.1796875,-26762.78516
41.1875,-26769.07617
41.1953125,-26777.40039
41.203125,-26787.25195
41.2109375,-26797.67578
41.21875,-26807.33203
41.2265625,-26815.90039
41.234375,-26822.74219
41.2421875,-26827.36328
41.25,-26829.18945
41.2578125,-26827.33398
41.265625,-26822.43164
41.2734375,-26815.74805
41.28125,-26809.36523
41.2890625,-26805.48828
41.296875,-26805.00586
41.3046875,-26807.74609
41.3125,-26812.39258
41.3203125,-26817.35156
41.328125,-26821.77148
41.3359375,-26825.57813
41.34375,-26829.7793
41.3515625,-26835.58008
41.359375,-26843.05469
41.3671875,-26851.5918
41.375,-26858.96094
41.3828125,-26863.08789
