Sampling Rate : 125Hz,Duration : 20 Minutes 
Time,PPG
0,0.283479961
0.008,0.28054741
0.016,0.279569892
0.024,0.278592375
0.032,0.277614858
0.04,0.275659824
0.048,0.27370479
0.056,0.270772239
0.064,0.268817204
0.072,0.26686217
0.08,0.263929619
0.088,0.261974585
0.096,0.26001955
0.104,0.259042033
0.112,0.258064516
0.12,0.258064516
0.128,0.259042033
0.136,0.26001955
0.144,0.26001955
0.152,0.26001955
0.16,0.259042033
0.168,0.259042033
0.176,0.259042033
0.184,0.258064516
0.192,0.258064516
0.2,0.258064516
0.208,0.257086999
0.216,0.255131965
0.224,0.253176931
0.232,0.252199413
0.24,0.251221896
0.248,0.252199413
0.256,0.258064516
0.264,0.270772239
0.272,0.292277615
0.28,0.324535679
0.288,0.364613881
0.296,0.410557185
0.304,0.45943304
0.312,0.509286413
0.32,0.557184751
0.328,0.595307918
0.336,0.626588465
0.344,0.65884653
0.352,0.688172043
0.36,0.714565005
0.368,0.737047898
0.376,0.755620723
0.384,0.77028348
0.392,0.782013685
0.4,0.789833822
0.408,0.793743891
0.416,0.793743891
0.424,0.790811339
0.432,0.785923754
0.44,0.778103617
0.448,0.769305963
0.456,0.758553275
0.464,0.746823069
0.472,0.73313783
0.48,0.718475073
0.488,0.7028348
0.496,0.686217009
0.504,0.669599218
0.512,0.65200391
0.52,0.634408602
0.528,0.617790811
0.536,0.603128055
0.544,0.591397849
0.552,0.579667644
0.56,0.569892473
0.568,0.560117302
0.576,0.552297165
0.584,0.545454545
0.592,0.538611926
0.6,0.531769306
0.608,0.524926686
0.616,0.519061584
0.624,0.513196481
0.632,0.508308895
0.64,0.50342131
0.648,0.498533724
0.656,0.494623656
0.664,0.488758553
0.672,0.481915934
0.68,0.475073314
0.688,0.467253177
0.696,0.45943304
0.704,0.45259042
0.712,0.444770283
0.72,0.437927664
0.728,0.430107527
0.736,0.423264907
0.744,0.41544477
0.752,0.409579668
0.76,0.404692082
0.768,0.398826979
0.776,0.39198436
0.784,0.386119257
0.792,0.379276637
0.8,0.372434018
0.808,0.366568915
0.816,0.359726295
0.824,0.353861193
0.832,0.348973607
0.84,0.344086022
0.848,0.339198436
0.856,0.335288368
0.864,0.332355816
0.872,0.328445748
0.88,0.323558162
0.888,0.319648094
0.896,0.315738025
0.904,0.312805474
0.912,0.309872923
0.92,0.306940371
0.928,0.30400782
0.936,0.302052786
0.944,0.299120235
0.952,0.295210166
0.96,0.293255132
0.968,0.292277615
0.976,0.290322581
0.984,0.287390029
0.992,0.285434995
1,0.282502444
1.008,0.279569892
1.016,0.276637341
1.024,0.272727273
1.032,0.268817204
1.04,0.267839687
1.048,0.270772239
1.056,0.279569892
1.064,0.293255132
1.072,0.313782991
1.08,0.343108504
1.088,0.381231672
1.096,0.425219941
1.104,0.471163245
1.112,0.517106549
1.12,0.559139785
1.128,0.597262952
1.136,0.630498534
1.144,0.65884653
1.152,0.68230694
1.16,0.701857283
1.168,0.716520039
1.176,0.72629521
1.184,0.735092864
1.192,0.741935484
1.2,0.746823069
1.208,0.748778104
1.216,0.747800587
1.224,0.743890518
1.232,0.738025415
1.24,0.729227761
1.248,0.71945259
1.256,0.707722385
1.264,0.695014663
1.272,0.68230694
1.28,0.668621701
1.288,0.652981427
1.296,0.635386119
1.304,0.617790811
1.312,0.599217986
1.32,0.581622678
1.328,0.56402737
1.336,0.548387097
1.344,0.535679374
1.352,0.523949169
1.36,0.514173998
1.368,0.506353861
1.376,0.499511241
1.384,0.493646139
1.392,0.487781036
1.4,0.482893451
1.408,0.478005865
1.416,0.47311828
1.424,0.468230694
1.432,0.463343109
1.44,0.458455523
1.448,0.453567937
1.456,0.449657869
1.464,0.444770283
1.472,0.438905181
1.48,0.434995112
1.488,0.430107527
1.496,0.425219941
1.504,0.420332356
1.512,0.41544477
1.52,0.409579668
1.528,0.403714565
1.536,0.397849462
1.544,0.39198436
1.552,0.38514174
1.56,0.377321603
1.568,0.369501466
1.576,0.362658847
1.584,0.35483871
1.592,0.348973607
1.6,0.345063539
1.608,0.339198436
1.616,0.333333333
1.624,0.328445748
1.632,0.322580645
1.64,0.31769306
1.648,0.312805474
1.656,0.307917889
1.664,0.303030303
1.672,0.2971652
1.68,0.291300098
1.688,0.285434995
1.696,0.281524927
1.704,0.277614858
1.712,0.27370479
1.72,0.270772239
1.728,0.267839687
1.736,0.26686217
1.744,0.264907136
1.752,0.263929619
1.76,0.261974585
1.768,0.260997067
1.776,0.259042033
1.784,0.259042033
1.792,0.26001955
1.8,0.261974585
1.808,0.263929619
1.816,0.26686217
1.824,0.268817204
1.832,0.270772239
1.84,0.272727273
1.848,0.27370479
1.856,0.274682307
1.864,0.274682307
1.872,0.274682307
1.88,0.274682307
1.888,0.274682307
1.896,0.274682307
1.904,0.274682307
1.912,0.274682307
1.92,0.275659824
1.928,0.274682307
1.936,0.274682307
1.944,0.27370479
1.952,0.271749756
1.96,0.270772239
1.968,0.268817204
1.976,0.26686217
1.984,0.264907136
1.992,0.262952102
2,0.260997067
2.008,0.26001955
2.016,0.26001955
2.024,0.26001955
2.032,0.259042033
2.04,0.258064516
2.048,0.257086999
2.056,0.256109482
2.064,0.255131965
2.072,0.255131965
2.08,0.254154448
2.088,0.254154448
2.096,0.253176931
2.104,0.253176931
2.112,0.253176931
2.12,0.254154448
2.128,0.253176931
2.136,0.252199413
2.144,0.251221896
2.152,0.250244379
2.16,0.252199413
2.168,0.257086999
2.176,0.268817204
2.184,0.288367546
2.192,0.316715543
2.2,0.352883675
2.208,0.395894428
2.216,0.43597263
2.224,0.475073314
2.232,0.518084066
2.24,0.560117302
2.248,0.599217986
2.256,0.634408602
2.264,0.664711632
2.272,0.691104594
2.28,0.712609971
2.288,0.730205279
2.296,0.743890518
2.304,0.754643206
2.312,0.761485826
2.32,0.76344086
2.328,0.762463343
2.336,0.760508309
2.344,0.755620723
2.352,0.748778104
2.36,0.73998045
2.368,0.728250244
2.376,0.715542522
2.384,0.700879765
2.392,0.685239492
2.4,0.669599218
2.408,0.652981427
2.416,0.637341153
2.424,0.623655914
2.432,0.609970674
2.44,0.597262952
2.448,0.58455523
2.456,0.573802542
2.464,0.563049853
2.472,0.555229717
2.48,0.54740958
2.488,0.54056696
2.496,0.53372434
2.504,0.527859238
2.512,0.521016618
2.52,0.515151515
2.528,0.51026393
2.536,0.505376344
2.544,0.501466276
2.552,0.49657869
2.56,0.492668622
2.568,0.487781036
2.576,0.482893451
2.584,0.478005865
2.592,0.47311828
2.6,0.467253177
2.608,0.461388074
2.616,0.455522972
2.624,0.448680352
2.632,0.442815249
2.64,0.436950147
2.648,0.431085044
2.656,0.425219941
2.664,0.418377322
2.672,0.412512219
2.68,0.406647116
2.688,0.399804497
2.696,0.393939394
2.704,0.388074291
2.712,0.382209189
2.72,0.376344086
2.728,0.370478983
2.736,0.365591398
2.744,0.361681329
2.752,0.358748778
2.76,0.35483871
2.768,0.350928641
2.776,0.346041056
2.784,0.342130987
2.792,0.338220919
2.8,0.33431085
2.808,0.331378299
2.816,0.328445748
2.824,0.325513196
2.832,0.322580645
2.84,0.319648094
2.848,0.316715543
2.856,0.315738025
2.864,0.312805474
2.872,0.309872923
2.88,0.306940371
2.888,0.304985337
2.896,0.304985337
2.904,0.308895406
2.912,0.318670577
2.92,0.335288368
2.928,0.360703812
2.936,0.39198436
2.944,0.42913001
2.952,0.463343109
2.96,0.49657869
2.968,0.531769306
2.976,0.566959922
2.984,0.599217986
2.992,0.627565982
3,0.65200391
3.008,0.671554252
3.016,0.688172043
3.024,0.701857283
3.032,0.711632454
3.04,0.71945259
3.048,0.723362659
3.056,0.725317693
3.064,0.723362659
3.072,0.720430108
3.08,0.716520039
3.088,0.711632454
3.096,0.704789834
3.104,0.696969697
3.112,0.687194526
3.12,0.676441838
3.128,0.663734115
3.136,0.650048876
3.144,0.634408602
3.152,0.617790811
3.16,0.603128055
3.168,0.588465298
3.176,0.574780059
3.184,0.560117302
3.192,0.546432063
3.2,0.53372434
3.208,0.521994135
3.216,0.511241447
3.224,0.501466276
3.232,0.492668622
3.24,0.485826002
3.248,0.479960899
3.256,0.475073314
3.264,0.470185728
3.272,0.465298143
3.28,0.461388074
3.288,0.456500489
3.296,0.451612903
3.304,0.446725318
3.312,0.440860215
3.32,0.43597263
3.328,0.430107527
3.336,0.424242424
3.344,0.418377322
3.352,0.412512219
3.36,0.406647116
3.368,0.402737048
3.376,0.398826979
3.384,0.394916911
3.392,0.391006843
3.4,0.386119257
3.408,0.380254154
3.416,0.374389052
3.424,0.368523949
3.432,0.361681329
3.44,0.35483871
3.448,0.34799609
3.456,0.34115347
3.464,0.335288368
3.472,0.329423265
3.48,0.325513196
3.488,0.320625611
3.496,0.315738025
3.504,0.31085044
3.512,0.305962854
3.52,0.302052786
3.528,0.299120235
3.536,0.295210166
3.544,0.293255132
3.552,0.290322581
3.56,0.288367546
3.568,0.286412512
3.576,0.284457478
3.584,0.283479961
3.592,0.282502444
3.6,0.279569892
3.608,0.277614858
3.616,0.275659824
3.624,0.272727273
3.632,0.269794721
3.64,0.26686217
3.648,0.263929619
3.656,0.262952102
3.664,0.262952102
3.672,0.268817204
3.68,0.279569892
3.688,0.295210166
3.696,0.315738025
3.704,0.345063539
3.712,0.382209189
3.72,0.42228739
3.728,0.464320626
3.736,0.505376344
3.744,0.542521994
3.752,0.576735093
3.76,0.606060606
3.768,0.631476051
3.776,0.65200391
3.784,0.667644184
3.792,0.678396872
3.8,0.685239492
3.808,0.691104594
3.816,0.695014663
3.824,0.696969697
3.832,0.69599218
3.84,0.694037146
3.848,0.684261975
3.856,0.670576735
3.864,0.656891496
3.872,0.643206256
3.88,0.629521017
3.888,0.61485826
3.896,0.600195503
3.904,0.586510264
3.912,0.571847507
3.92,0.556207234
3.928,0.54056696
3.936,0.525904203
3.944,0.512218964
3.952,0.500488759
3.96,0.48973607
3.968,0.479960899
3.976,0.47311828
3.984,0.46627566
3.992,0.461388074
4,0.457478006
4.008,0.454545455
4.016,0.45259042
4.024,0.449657869
4.032,0.447702835
4.04,0.445747801
4.048,0.443792766
4.056,0.441837732
4.064,0.438905181
4.072,0.43597263
4.08,0.433040078
4.088,0.430107527
4.096,0.426197458
4.104,0.42228739
4.112,0.418377322
4.12,0.412512219
4.128,0.406647116
4.136,0.399804497
4.144,0.39198436
4.152,0.38514174
4.16,0.377321603
4.168,0.369501466
4.176,0.362658847
4.184,0.35483871
4.192,0.348973607
4.2,0.342130987
4.208,0.338220919
4.216,0.33431085
4.224,0.329423265
4.232,0.325513196
4.24,0.321603128
4.248,0.31769306
4.256,0.314760508
4.264,0.311827957
4.272,0.308895406
4.28,0.306940371
4.288,0.30400782
4.296,0.302052786
4.304,0.299120235
4.312,0.2971652
4.32,0.295210166
4.328,0.292277615
4.336,0.289345064
4.344,0.286412512
4.352,0.283479961
4.36,0.28054741
4.368,0.278592375
4.376,0.275659824
4.384,0.274682307
4.392,0.27370479
4.4,0.276637341
4.408,0.284457478
4.416,0.296187683
4.424,0.312805474
4.432,0.337243402
4.44,0.368523949
4.448,0.405669599
4.456,0.444770283
4.464,0.484848485
4.472,0.522971652
4.48,0.559139785
4.488,0.590420332
4.496,0.617790811
4.504,0.640273705
4.512,0.659824047
4.52,0.674486804
4.528,0.684261975
4.536,0.694037146
4.544,0.7028348
4.552,0.709677419
4.56,0.713587488
4.568,0.715542522
4.576,0.714565005
4.584,0.711632454
4.592,0.706744868
4.6,0.700879765
4.608,0.693059629
4.616,0.683284457
4.624,0.671554252
4.632,0.660801564
4.64,0.648093842
4.648,0.634408602
4.656,0.618768328
4.664,0.603128055
4.672,0.587487781
4.68,0.571847507
4.688,0.557184751
4.696,0.543499511
4.704,0.529814272
4.712,0.518084066
4.72,0.507331378
4.728,0.497556207
4.736,0.48973607
4.744,0.482893451
4.752,0.477028348
4.76,0.472140762
4.768,0.467253177
4.776,0.462365591
4.784,0.457478006
4.792,0.451612903
4.8,0.445747801
4.808,0.439882698
4.816,0.433040078
4.824,0.426197458
4.832,0.419354839
4.84,0.413489736
4.848,0.407624633
4.856,0.400782014
4.864,0.393939394
4.872,0.387096774
4.88,0.380254154
4.888,0.374389052
4.896,0.368523949
4.904,0.363636364
4.912,0.357771261
4.92,0.351906158
4.928,0.346041056
4.936,0.340175953
4.944,0.335288368
4.952,0.332355816
4.96,0.328445748
4.968,0.324535679
4.976,0.320625611
4.984,0.316715543
4.992,0.312805474
5,0.308895406
5.008,0.304985337
5.016,0.301075269
5.024,0.2971652
5.032,0.293255132
5.04,0.290322581
5.048,0.288367546
5.056,0.287390029
5.064,0.286412512
5.072,0.284457478
5.08,0.282502444
5.088,0.279569892
5.096,0.276637341
5.104,0.27370479
5.112,0.270772239
5.12,0.267839687
5.128,0.265884653
5.136,0.265884653
5.144,0.26686217
5.152,0.270772239
5.16,0.278592375
5.168,0.292277615
5.176,0.312805474
5.184,0.34115347
5.192,0.375366569
5.2,0.413489736
5.208,0.453567937
5.216,0.493646139
5.224,0.530791789
5.232,0.56402737
5.24,0.593352884
5.248,0.617790811
5.256,0.636363636
5.264,0.649071359
5.272,0.662756598
5.28,0.673509286
5.288,0.68230694
5.296,0.68914956
5.304,0.693059629
5.312,0.695014663
5.32,0.695014663
5.328,0.694037146
5.336,0.691104594
5.344,0.686217009
5.352,0.680351906
5.36,0.673509286
5.368,0.664711632
5.376,0.653958944
5.384,0.642228739
5.392,0.6285435
5.4,0.61485826
5.408,0.600195503
5.416,0.58455523
5.424,0.569892473
5.432,0.556207234
5.44,0.543499511
5.448,0.530791789
5.456,0.520039101
5.464,0.51026393
5.472,0.502443793
5.48,0.494623656
5.488,0.486803519
5.496,0.478983382
5.504,0.472140762
5.512,0.464320626
5.52,0.457478006
5.528,0.450635386
5.536,0.443792766
5.544,0.437927664
5.552,0.431085044
5.56,0.424242424
5.568,0.419354839
5.576,0.41544477
5.584,0.410557185
5.592,0.405669599
5.6,0.400782014
5.608,0.396871945
5.616,0.391006843
5.624,0.386119257
5.632,0.379276637
5.64,0.373411535
5.648,0.367546432
5.656,0.360703812
5.664,0.35483871
5.672,0.350928641
5.68,0.346041056
5.688,0.34115347
5.696,0.336265885
5.704,0.330400782
5.712,0.325513196
5.72,0.320625611
5.728,0.315738025
5.736,0.311827957
5.744,0.307917889
5.752,0.30400782
5.76,0.300097752
5.768,0.2971652
5.776,0.294232649
5.784,0.292277615
5.792,0.290322581
5.8,0.288367546
5.808,0.285434995
5.816,0.283479961
5.824,0.28054741
5.832,0.277614858
5.84,0.275659824
5.848,0.272727273
5.856,0.270772239
5.864,0.263929619
5.872,0.256109482
5.88,0.250244379
5.888,0.246334311
5.896,0.244379277
5.904,0.242424242
5.912,0.240469208
5.92,0.238514174
5.928,0.23655914
5.936,0.235581623
5.944,0.233626588
5.952,0.231671554
5.96,0.22971652
5.968,0.227761486
5.976,0.225806452
5.984,0.224828935
5.992,0.225806452
6,0.226783969
6.008,0.226783969
6.016,0.226783969
6.024,0.226783969
6.032,0.224828935
6.04,0.2228739
6.048,0.220918866
6.056,0.218963832
6.064,0.217008798
6.072,0.215053763
6.08,0.215053763
6.088,0.214076246
6.096,0.215053763
6.104,0.215053763
6.112,0.215053763
6.12,0.214076246
6.128,0.213098729
6.136,0.212121212
6.144,0.211143695
6.152,0.211143695
6.16,0.212121212
6.168,0.213098729
6.176,0.215053763
6.184,0.217008798
6.192,0.219941349
6.2,0.2228739
6.208,0.226783969
6.216,0.230694037
6.224,0.233626588
6.232,0.237536657
6.24,0.240469208
6.248,0.24340176
6.256,0.245356794
6.264,0.246334311
6.272,0.246334311
6.28,0.246334311
6.288,0.246334311
6.296,0.249266862
6.304,0.254154448
6.312,0.263929619
6.32,0.281524927
6.328,0.307917889
6.336,0.342130987
6.344,0.384164223
6.352,0.431085044
6.36,0.480938416
6.368,0.528836755
6.376,0.574780059
6.384,0.616813294
6.392,0.652981427
6.4,0.684261975
6.408,0.706744868
6.416,0.724340176
6.424,0.73998045
6.432,0.753665689
6.44,0.764418377
6.448,0.772238514
6.456,0.776148583
6.464,0.7771261
6.472,0.776148583
6.48,0.771260997
6.488,0.764418377
6.496,0.755620723
6.504,0.743890518
6.512,0.732160313
6.52,0.718475073
6.528,0.7028348
6.536,0.687194526
6.544,0.670576735
6.552,0.653958944
6.56,0.637341153
6.568,0.622678397
6.576,0.60801564
6.584,0.596285435
6.592,0.58455523
6.6,0.574780059
6.608,0.565004888
6.616,0.557184751
6.624,0.550342131
6.632,0.542521994
6.64,0.535679374
6.648,0.528836755
6.656,0.522971652
6.664,0.517106549
6.672,0.512218964
6.68,0.507331378
6.688,0.502443793
6.696,0.497556207
6.704,0.492668622
6.712,0.486803519
6.72,0.481915934
6.728,0.476050831
6.736,0.470185728
6.744,0.463343109
6.752,0.455522972
6.76,0.448680352
6.768,0.441837732
6.776,0.434995112
6.784,0.428152493
6.792,0.421309873
6.8,0.414467253
6.808,0.408602151
6.816,0.401759531
6.824,0.394916911
6.832,0.389051808
6.84,0.384164223
6.848,0.379276637
6.856,0.372434018
6.864,0.366568915
6.872,0.360703812
6.88,0.35483871
6.888,0.349951124
6.896,0.345063539
6.904,0.340175953
6.912,0.335288368
6.92,0.331378299
6.928,0.327468231
6.936,0.323558162
6.944,0.321603128
6.952,0.31769306
6.96,0.314760508
6.968,0.31085044
6.976,0.307917889
6.984,0.304985337
6.992,0.302052786
7,0.299120235
7.008,0.296187683
7.016,0.294232649
7.024,0.291300098
7.032,0.290322581
7.04,0.289345064
7.048,0.289345064
7.056,0.289345064
7.064,0.290322581
7.072,0.290322581
7.08,0.289345064
7.088,0.288367546
7.096,0.287390029
7.104,0.285434995
7.112,0.283479961
7.12,0.282502444
7.128,0.281524927
7.136,0.28054741
7.144,0.28054741
7.152,0.28054741
7.16,0.279569892
7.168,0.278592375
7.176,0.276637341
7.184,0.274682307
7.192,0.272727273
7.2,0.271749756
7.208,0.269794721
7.216,0.268817204
7.224,0.26686217
7.232,0.264907136
7.24,0.263929619
7.248,0.263929619
7.256,0.267839687
7.264,0.276637341
7.272,0.293255132
7.28,0.31769306
7.288,0.351906158
7.296,0.39198436
7.304,0.437927664
7.312,0.485826002
7.32,0.532746823
7.328,0.57771261
7.336,0.618768328
7.344,0.655913978
7.352,0.684261975
7.36,0.706744868
7.368,0.729227761
7.376,0.749755621
7.384,0.767350929
7.392,0.781036168
7.4,0.791788856
7.408,0.798631476
7.416,0.803519062
7.424,0.804496579
7.432,0.804496579
7.44,0.80058651
7.448,0.795698925
7.456,0.787878788
7.464,0.778103617
7.472,0.768328446
7.48,0.75659824
7.488,0.742913001
7.496,0.728250244
7.504,0.713587488
7.512,0.698924731
7.52,0.683284457
7.528,0.667644184
7.536,0.652981427
7.544,0.638318671
7.552,0.623655914
7.56,0.609970674
7.568,0.598240469
7.576,0.585532747
7.584,0.574780059
7.592,0.56402737
7.6,0.554252199
7.608,0.546432063
7.616,0.539589443
7.624,0.532746823
7.632,0.525904203
7.64,0.520039101
7.648,0.513196481
7.656,0.506353861
7.664,0.499511241
7.672,0.493646139
7.68,0.488758553
7.688,0.481915934
7.696,0.475073314
7.704,0.467253177
7.712,0.45943304
7.72,0.450635386
7.728,0.441837732
7.736,0.433040078
7.744,0.424242424
7.752,0.417399804
7.76,0.410557185
7.768,0.403714565
7.776,0.397849462
7.784,0.39198436
7.792,0.38514174
7.8,0.37829912
7.808,0.370478983
7.816,0.362658847
7.824,0.355816227
7.832,0.349951124
7.84,0.344086022
7.848,0.339198436
7.856,0.33431085
7.864,0.328445748
7.872,0.323558162
7.88,0.319648094
7.888,0.316715543
7.896,0.315738025
7.904,0.319648094
7.912,0.333333333
7.92,0.355816227
7.928,0.382209189
7.936,0.411534702
7.944,0.443792766
7.952,0.478005865
7.96,0.511241447
7.968,0.542521994
7.976,0.57086999
7.984,0.593352884
7.992,0.610948192
8,0.627565982
8.008,0.641251222
8.016,0.652981427
8.024,0.661779081
8.032,0.667644184
8.04,0.671554252
8.048,0.673509286
8.056,0.673509286
8.064,0.672531769
8.072,0.670576735
8.08,0.666666667
8.088,0.661779081
8.096,0.655913978
8.104,0.649071359
8.112,0.641251222
8.12,0.631476051
8.128,0.619745846
8.136,0.607038123
8.144,0.592375367
8.152,0.575757576
8.16,0.560117302
8.168,0.544477028
8.176,0.528836755
8.184,0.515151515
8.192,0.504398827
8.2,0.494623656
8.208,0.485826002
8.216,0.477028348
8.224,0.469208211
8.232,0.463343109
8.24,0.457478006
8.248,0.45259042
8.256,0.448680352
8.264,0.444770283
8.272,0.440860215
8.28,0.436950147
8.288,0.433040078
8.296,0.42913001
8.304,0.425219941
8.312,0.420332356
8.32,0.41544477
8.328,0.411534702
8.336,0.406647116
8.344,0.401759531
8.352,0.396871945
8.36,0.39198436
8.368,0.387096774
8.376,0.381231672
8.384,0.376344086
8.392,0.370478983
8.4,0.366568915
8.408,0.363636364
8.416,0.359726295
8.424,0.35483871
8.432,0.349951124
8.44,0.345063539
8.448,0.339198436
8.456,0.333333333
8.464,0.327468231
8.472,0.322580645
8.48,0.31769306
8.488,0.313782991
8.496,0.308895406
8.504,0.305962854
8.512,0.30400782
8.52,0.300097752
8.528,0.2971652
8.536,0.294232649
8.544,0.290322581
8.552,0.286412512
8.56,0.282502444
8.568,0.278592375
8.576,0.274682307
8.584,0.270772239
8.592,0.267839687
8.6,0.264907136
8.608,0.263929619
8.616,0.263929619
8.624,0.262952102
8.632,0.262952102
8.64,0.261974585
8.648,0.261974585
8.656,0.260997067
8.664,0.260997067
8.672,0.260997067
8.68,0.261974585
8.688,0.262952102
8.696,0.263929619
8.704,0.265884653
8.712,0.267839687
8.72,0.269794721
8.728,0.271749756
8.736,0.27370479
8.744,0.275659824
8.752,0.276637341
8.76,0.276637341
8.768,0.277614858
8.776,0.277614858
8.784,0.278592375
8.792,0.278592375
8.8,0.278592375
8.808,0.277614858
8.816,0.276637341
8.824,0.275659824
8.832,0.274682307
8.84,0.27370479
8.848,0.274682307
8.856,0.28054741
8.864,0.292277615
8.872,0.312805474
8.88,0.340175953
8.888,0.374389052
8.896,0.412512219
8.904,0.453567937
8.912,0.494623656
8.92,0.532746823
8.928,0.56402737
8.936,0.589442815
8.944,0.61485826
8.952,0.638318671
8.96,0.65884653
8.968,0.676441838
8.976,0.690127077
8.984,0.699902248
8.992,0.705767351
9,0.709677419
9.008,0.710654936
9.016,0.709677419
9.024,0.705767351
9.032,0.700879765
9.04,0.695014663
9.048,0.687194526
9.056,0.679374389
9.064,0.669599218
9.072,0.65884653
9.08,0.646138807
9.088,0.633431085
9.096,0.620723363
9.104,0.607038123
9.112,0.594330401
9.12,0.581622678
9.128,0.569892473
9.136,0.559139785
9.144,0.550342131
9.152,0.541544477
9.16,0.532746823
9.168,0.524926686
9.176,0.518084066
9.184,0.511241447
9.192,0.505376344
9.2,0.500488759
9.208,0.495601173
9.216,0.48973607
9.224,0.484848485
9.232,0.479960899
9.24,0.475073314
9.248,0.470185728
9.256,0.464320626
9.264,0.457478006
9.272,0.450635386
9.28,0.444770283
9.288,0.437927664
9.296,0.431085044
9.304,0.424242424
9.312,0.417399804
9.32,0.410557185
9.328,0.403714565
9.336,0.397849462
9.344,0.392961877
9.352,0.388074291
9.36,0.383186706
9.368,0.379276637
9.376,0.374389052
9.384,0.370478983
9.392,0.366568915
9.4,0.361681329
9.408,0.356793744
9.416,0.352883675
9.424,0.34799609
9.432,0.343108504
9.44,0.339198436
9.448,0.336265885
9.456,0.333333333
9.464,0.330400782
9.472,0.327468231
9.48,0.324535679
9.488,0.320625611
9.496,0.318670577
9.504,0.31769306
9.512,0.321603128
9.52,0.329423265
9.528,0.344086022
9.536,0.365591398
9.544,0.39198436
9.552,0.424242424
9.56,0.453567937
9.568,0.481915934
9.576,0.512218964
9.584,0.543499511
9.592,0.571847507
9.6,0.596285435
9.608,0.617790811
9.616,0.635386119
9.624,0.649071359
9.632,0.660801564
9.64,0.669599218
9.648,0.676441838
9.656,0.680351906
9.664,0.681329423
9.672,0.681329423
9.68,0.680351906
9.688,0.678396872
9.696,0.675464321
9.704,0.670576735
9.712,0.664711632
9.72,0.656891496
9.728,0.647116325
9.736,0.636363636
9.744,0.623655914
9.752,0.609970674
9.76,0.596285435
9.768,0.583577713
9.776,0.568914956
9.784,0.555229717
9.792,0.54056696
9.8,0.52688172
9.808,0.514173998
9.816,0.502443793
9.824,0.491691105
9.832,0.482893451
9.84,0.474095797
9.848,0.467253177
9.856,0.460410557
9.864,0.454545455
9.872,0.449657869
9.88,0.445747801
9.888,0.440860215
9.896,0.43597263
9.904,0.431085044
9.912,0.426197458
9.92,0.421309873
9.928,0.416422287
9.936,0.411534702
9.944,0.405669599
9.952,0.399804497
9.96,0.393939394
9.968,0.389051808
9.976,0.384164223
9.984,0.379276637
9.992,0.374389052
10,0.369501466
10.008,0.364613881
10.016,0.359726295
10.024,0.35483871
10.032,0.349951124
10.04,0.345063539
10.048,0.339198436
10.056,0.33431085
10.064,0.329423265
10.072,0.324535679
10.08,0.320625611
10.088,0.31769306
10.096,0.314760508
10.104,0.31085044
10.112,0.306940371
10.12,0.303030303
10.128,0.300097752
10.136,0.296187683
10.144,0.293255132
10.152,0.290322581
10.16,0.287390029
10.168,0.284457478
10.176,0.282502444
10.184,0.28054741
10.192,0.279569892
10.2,0.277614858
10.208,0.275659824
10.216,0.274682307
10.224,0.272727273
10.232,0.271749756
10.24,0.270772239
10.248,0.269794721
10.256,0.268817204
10.264,0.267839687
10.272,0.265884653
10.28,0.265884653
10.288,0.26686217
10.296,0.269794721
10.304,0.276637341
10.312,0.289345064
10.32,0.308895406
10.328,0.336265885
10.336,0.3714565
10.344,0.411534702
10.352,0.453567937
10.36,0.49657869
10.368,0.537634409
10.376,0.575757576
10.384,0.608993157
10.392,0.634408602
10.4,0.654936461
10.408,0.675464321
10.416,0.693059629
10.424,0.706744868
10.432,0.718475073
10.44,0.725317693
10.448,0.730205279
10.456,0.732160313
10.464,0.732160313
10.472,0.730205279
10.48,0.72629521
10.488,0.720430108
10.496,0.713587488
10.504,0.704789834
10.512,0.694037146
10.52,0.68230694
10.528,0.669599218
10.536,0.654936461
10.544,0.640273705
10.552,0.624633431
10.56,0.608993157
10.568,0.594330401
10.576,0.578690127
10.584,0.565004888
10.592,0.551319648
10.6,0.539589443
10.608,0.529814272
10.616,0.520039101
10.624,0.511241447
10.632,0.50342131
10.64,0.49657869
10.648,0.48973607
10.656,0.482893451
10.664,0.477028348
10.672,0.470185728
10.68,0.462365591
10.688,0.455522972
10.696,0.448680352
10.704,0.442815249
10.712,0.436950147
10.72,0.432062561
10.728,0.426197458
10.736,0.420332356
10.744,0.414467253
10.752,0.407624633
10.76,0.400782014
10.768,0.394916911
10.776,0.389051808
10.784,0.38514174
10.792,0.383186706
10.8,0.38514174
10.808,0.390029326
10.816,0.398826979
10.824,0.411534702
10.832,0.430107527
10.84,0.450635386
10.848,0.472140762
10.856,0.494623656
10.864,0.514173998
10.872,0.532746823
10.88,0.54740958
10.888,0.560117302
10.896,0.568914956
10.904,0.575757576
10.912,0.579667644
10.92,0.580645161
10.928,0.579667644
10.936,0.575757576
10.944,0.569892473
10.952,0.561094819
10.96,0.551319648
10.968,0.539589443
10.976,0.52688172
10.984,0.513196481
10.992,0.498533724
11,0.482893451
11.008,0.46627566
11.016,0.450635386
11.024,0.436950147
11.032,0.425219941
11.04,0.412512219
11.048,0.401759531
11.056,0.39198436
11.064,0.384164223
11.072,0.377321603
11.08,0.372434018
11.088,0.368523949
11.096,0.364613881
11.104,0.361681329
11.112,0.359726295
11.12,0.356793744
11.128,0.355816227
11.136,0.35483871
11.144,0.352883675
11.152,0.350928641
11.16,0.34799609
11.168,0.345063539
11.176,0.343108504
11.184,0.340175953
11.192,0.338220919
11.2,0.335288368
11.208,0.332355816
11.216,0.328445748
11.224,0.324535679
11.232,0.320625611
11.24,0.316715543
11.248,0.311827957
11.256,0.305962854
11.264,0.300097752
11.272,0.295210166
11.28,0.290322581
11.288,0.287390029
11.296,0.284457478
11.304,0.282502444
11.312,0.281524927
11.32,0.28054741
11.328,0.279569892
11.336,0.278592375
11.344,0.277614858
11.352,0.277614858
11.36,0.277614858
11.368,0.279569892
11.376,0.285434995
11.384,0.296187683
11.392,0.313782991
11.4,0.339198436
11.408,0.3714565
11.416,0.407624633
11.424,0.447702835
11.432,0.487781036
11.44,0.521994135
11.448,0.550342131
11.456,0.579667644
11.464,0.606060606
11.472,0.6285435
11.48,0.646138807
11.488,0.660801564
11.496,0.670576735
11.504,0.677419355
11.512,0.68230694
11.52,0.683284457
11.528,0.68230694
11.536,0.680351906
11.544,0.675464321
11.552,0.669599218
11.56,0.661779081
11.568,0.653958944
11.576,0.644183773
11.584,0.632453568
11.592,0.619745846
11.6,0.606060606
11.608,0.591397849
11.616,0.575757576
11.624,0.559139785
11.632,0.542521994
11.64,0.52688172
11.648,0.512218964
11.656,0.500488759
11.664,0.488758553
11.672,0.478983382
11.68,0.470185728
11.688,0.462365591
11.696,0.455522972
11.704,0.449657869
11.712,0.444770283
11.72,0.438905181
11.728,0.433040078
11.736,0.428152493
11.744,0.42228739
11.752,0.417399804
11.76,0.413489736
11.768,0.408602151
11.776,0.402737048
11.784,0.397849462
11.792,0.39198436
11.8,0.38514174
11.808,0.379276637
11.816,0.373411535
11.824,0.366568915
11.832,0.360703812
11.84,0.35483871
11.848,0.348973607
11.856,0.344086022
11.864,0.339198436
11.872,0.336265885
11.88,0.332355816
11.888,0.328445748
11.896,0.323558162
11.904,0.319648094
11.912,0.314760508
11.92,0.309872923
11.928,0.30400782
11.936,0.299120235
11.944,0.295210166
11.952,0.291300098
11.96,0.287390029
11.968,0.285434995
11.976,0.283479961
11.984,0.281524927
11.992,0.278592375
12,0.276637341
12.008,0.269794721
12.016,0.262952102
12.024,0.258064516
12.032,0.255131965
12.04,0.253176931
12.048,0.251221896
12.056,0.249266862
12.064,0.247311828
12.072,0.246334311
12.08,0.245356794
12.088,0.24340176
12.096,0.241446725
12.104,0.240469208
12.112,0.244379277
12.12,0.254154448
12.128,0.272727273
12.136,0.301075269
12.144,0.337243402
12.152,0.381231672
12.16,0.428152493
12.168,0.477028348
12.176,0.518084066
12.184,0.554252199
12.192,0.590420332
12.2,0.625610948
12.208,0.655913978
12.216,0.68230694
12.224,0.704789834
12.232,0.723362659
12.24,0.737047898
12.248,0.747800587
12.256,0.755620723
12.264,0.759530792
12.272,0.761485826
12.28,0.760508309
12.288,0.75659824
12.296,0.751710655
12.304,0.744868035
12.312,0.736070381
12.32,0.72629521
12.328,0.715542522
12.336,0.7028348
12.344,0.68914956
12.352,0.674486804
12.36,0.657869013
12.368,0.641251222
12.376,0.623655914
12.384,0.607038123
12.392,0.591397849
12.4,0.574780059
12.408,0.558162268
12.416,0.541544477
12.424,0.52688172
12.432,0.513196481
12.44,0.500488759
12.448,0.48973607
12.456,0.479960899
12.464,0.471163245
12.472,0.464320626
12.48,0.457478006
12.488,0.451612903
12.496,0.446725318
12.504,0.440860215
12.512,0.434017595
12.52,0.427174976
12.528,0.419354839
12.536,0.410557185
12.544,0.402737048
12.552,0.394916911
12.56,0.387096774
12.568,0.380254154
12.576,0.372434018
12.584,0.364613881
12.592,0.357771261
12.6,0.351906158
12.608,0.345063539
12.616,0.338220919
12.624,0.331378299
12.632,0.324535679
12.64,0.319648094
12.648,0.31769306
12.656,0.319648094
12.664,0.328445748
12.672,0.343108504
12.68,0.365591398
12.688,0.393939394
12.696,0.42228739
12.704,0.450635386
12.712,0.482893451
12.72,0.516129032
12.728,0.54740958
12.736,0.574780059
12.744,0.598240469
12.752,0.617790811
12.76,0.633431085
12.768,0.644183773
12.776,0.652981427
12.784,0.65884653
12.792,0.661779081
12.8,0.661779081
12.808,0.659824047
12.816,0.657869013
12.824,0.653958944
12.832,0.648093842
12.84,0.641251222
12.848,0.632453568
12.856,0.62170088
12.864,0.608993157
12.872,0.594330401
12.88,0.57771261
12.888,0.560117302
12.896,0.542521994
12.904,0.522971652
12.912,0.506353861
12.92,0.490713587
12.928,0.475073314
12.936,0.45943304
12.944,0.444770283
12.952,0.433040078
12.96,0.42228739
12.968,0.413489736
12.976,0.405669599
12.984,0.398826979
12.992,0.39198436
13,0.386119257
13.008,0.380254154
13.016,0.376344086
13.024,0.372434018
13.032,0.367546432
13.04,0.363636364
13.048,0.359726295
13.056,0.355816227
13.064,0.351906158
13.072,0.347018573
13.08,0.34115347
13.088,0.335288368
13.096,0.328445748
13.104,0.321603128
13.112,0.314760508
13.12,0.309872923
13.128,0.305962854
13.136,0.301075269
13.144,0.296187683
13.152,0.291300098
13.16,0.286412512
13.168,0.281524927
13.176,0.276637341
13.184,0.271749756
13.192,0.26686217
13.2,0.261974585
13.208,0.257086999
13.216,0.253176931
13.224,0.251221896
13.232,0.249266862
13.24,0.246334311
13.248,0.24340176
13.256,0.240469208
13.264,0.237536657
13.272,0.235581623
13.28,0.232649071
13.288,0.230694037
13.296,0.227761486
13.304,0.224828935
13.312,0.2228739
13.32,0.219941349
13.328,0.218963832
13.336,0.219941349
13.344,0.219941349
13.352,0.219941349
13.36,0.219941349
13.368,0.219941349
13.376,0.220918866
13.384,0.219941349
13.392,0.219941349
13.4,0.218963832
13.408,0.216031281
13.416,0.214076246
13.424,0.211143695
13.432,0.211143695
13.44,0.214076246
13.448,0.2228739
13.456,0.238514174
13.464,0.262952102
13.472,0.296187683
13.48,0.337243402
13.488,0.384164223
13.496,0.434017595
13.504,0.483870968
13.512,0.530791789
13.52,0.572825024
13.528,0.608993157
13.536,0.637341153
13.544,0.657869013
13.552,0.677419355
13.56,0.695014663
13.568,0.708699902
13.576,0.71945259
13.584,0.72629521
13.592,0.731182796
13.6,0.734115347
13.608,0.73313783
13.616,0.731182796
13.624,0.72629521
13.632,0.718475073
13.64,0.709677419
13.648,0.699902248
13.656,0.688172043
13.664,0.675464321
13.672,0.659824047
13.68,0.643206256
13.688,0.625610948
13.696,0.607038123
13.704,0.588465298
13.712,0.569892473
13.72,0.552297165
13.728,0.536656891
13.736,0.522971652
13.744,0.511241447
13.752,0.502443793
13.76,0.493646139
13.768,0.485826002
13.776,0.478983382
13.784,0.472140762
13.792,0.465298143
13.8,0.458455523
13.808,0.451612903
13.816,0.444770283
13.824,0.436950147
13.832,0.42913001
13.84,0.421309873
13.848,0.414467253
13.856,0.408602151
13.864,0.400782014
13.872,0.393939394
13.88,0.387096774
13.888,0.379276637
13.896,0.372434018
13.904,0.365591398
13.912,0.358748778
13.92,0.352883675
13.928,0.346041056
13.936,0.340175953
13.944,0.33431085
13.952,0.327468231
13.96,0.322580645
13.968,0.316715543
13.976,0.31085044
13.984,0.30400782
13.992,0.296187683
14,0.289345064
14.008,0.282502444
14.016,0.275659824
14.024,0.269794721
14.032,0.264907136
14.04,0.262952102
14.048,0.265884653
14.056,0.282502444
14.064,0.306940371
14.072,0.329423265
14.08,0.355816227
14.088,0.388074291
14.096,0.423264907
14.104,0.460410557
14.112,0.49657869
14.12,0.529814272
14.128,0.561094819
14.136,0.587487781
14.144,0.609970674
14.152,0.629521017
14.16,0.644183773
14.168,0.653958944
14.176,0.660801564
14.184,0.664711632
14.192,0.667644184
14.2,0.667644184
14.208,0.66568915
14.216,0.661779081
14.224,0.655913978
14.232,0.649071359
14.24,0.640273705
14.248,0.631476051
14.256,0.620723363
14.264,0.608993157
14.272,0.597262952
14.28,0.58455523
14.288,0.57086999
14.296,0.554252199
14.304,0.537634409
14.312,0.521016618
14.32,0.505376344
14.328,0.490713587
14.336,0.478005865
14.344,0.467253177
14.352,0.458455523
14.36,0.451612903
14.368,0.445747801
14.376,0.440860215
14.384,0.436950147
14.392,0.433040078
14.4,0.428152493
14.408,0.423264907
14.416,0.418377322
14.424,0.412512219
14.432,0.407624633
14.44,0.401759531
14.448,0.395894428
14.456,0.390029326
14.464,0.38514174
14.472,0.379276637
14.48,0.374389052
14.488,0.370478983
14.496,0.365591398
14.504,0.360703812
14.512,0.355816227
14.52,0.350928641
14.528,0.347018573
14.536,0.342130987
14.544,0.338220919
14.552,0.33431085
14.56,0.329423265
14.568,0.324535679
14.576,0.319648094
14.584,0.315738025
14.592,0.312805474
14.6,0.308895406
14.608,0.305962854
14.616,0.303030303
14.624,0.301075269
14.632,0.299120235
14.64,0.296187683
14.648,0.294232649
14.656,0.291300098
14.664,0.288367546
14.672,0.285434995
14.68,0.282502444
14.688,0.28054741
14.696,0.279569892
14.704,0.278592375
14.712,0.276637341
14.72,0.275659824
14.728,0.274682307
14.736,0.27370479
14.744,0.272727273
14.752,0.271749756
14.76,0.270772239
14.768,0.269794721
14.776,0.267839687
14.784,0.265884653
14.792,0.264907136
14.8,0.265884653
14.808,0.267839687
14.816,0.27370479
14.824,0.286412512
14.832,0.306940371
14.84,0.336265885
14.848,0.372434018
14.856,0.414467253
14.864,0.458455523
14.872,0.50342131
14.88,0.545454545
14.888,0.58455523
14.896,0.618768328
14.904,0.644183773
14.912,0.664711632
14.92,0.684261975
14.928,0.700879765
14.936,0.714565005
14.944,0.725317693
14.952,0.73313783
14.96,0.739002933
14.968,0.741935484
14.976,0.741935484
14.984,0.740957967
14.992,0.737047898
15,0.731182796
15.008,0.724340176
15.016,0.716520039
15.024,0.706744868
15.032,0.69599218
15.04,0.684261975
15.048,0.670576735
15.056,0.655913978
15.064,0.640273705
15.072,0.623655914
15.08,0.607038123
15.088,0.590420332
15.096,0.573802542
15.104,0.558162268
15.112,0.544477028
15.12,0.532746823
15.128,0.521994135
15.136,0.511241447
15.144,0.502443793
15.152,0.493646139
15.16,0.485826002
15.168,0.478983382
15.176,0.472140762
15.184,0.465298143
15.192,0.458455523
15.2,0.451612903
15.208,0.444770283
15.216,0.438905181
15.224,0.433040078
15.232,0.427174976
15.24,0.419354839
15.248,0.412512219
15.256,0.404692082
15.264,0.397849462
15.272,0.391006843
15.28,0.384164223
15.288,0.377321603
15.296,0.3714565
15.304,0.365591398
15.312,0.360703812
15.32,0.355816227
15.328,0.352883675
15.336,0.348973607
15.344,0.345063539
15.352,0.34115347
15.36,0.336265885
15.368,0.332355816
15.376,0.326490714
15.384,0.320625611
15.392,0.315738025
15.4,0.309872923
15.408,0.304985337
15.416,0.301075269
15.424,0.300097752
15.432,0.302052786
15.44,0.308895406
15.448,0.321603128
15.456,0.34115347
15.464,0.368523949
15.472,0.401759531
15.48,0.437927664
15.488,0.475073314
15.496,0.51026393
15.504,0.543499511
15.512,0.571847507
15.52,0.596285435
15.528,0.61485826
15.536,0.6285435
15.544,0.641251222
15.552,0.65200391
15.56,0.659824047
15.568,0.66568915
15.576,0.669599218
15.584,0.670576735
15.592,0.669599218
15.6,0.667644184
15.608,0.662756598
15.616,0.657869013
15.624,0.650048876
15.632,0.642228739
15.64,0.633431085
15.648,0.622678397
15.656,0.609970674
15.664,0.596285435
15.672,0.580645161
15.68,0.565004888
15.688,0.548387097
15.696,0.531769306
15.704,0.516129032
15.712,0.500488759
15.72,0.486803519
15.728,0.474095797
15.736,0.464320626
15.744,0.456500489
15.752,0.448680352
15.76,0.440860215
15.768,0.434017595
15.776,0.428152493
15.784,0.42228739
15.792,0.417399804
15.8,0.411534702
15.808,0.406647116
15.816,0.401759531
15.824,0.396871945
15.832,0.39198436
15.84,0.388074291
15.848,0.384164223
15.856,0.37829912
15.864,0.372434018
15.872,0.366568915
15.88,0.359726295
15.888,0.353861193
15.896,0.348973607
15.904,0.344086022
15.912,0.340175953
15.92,0.336265885
15.928,0.332355816
15.936,0.327468231
15.944,0.324535679
15.952,0.320625611
15.96,0.316715543
15.968,0.311827957
15.976,0.306940371
15.984,0.303030303
15.992,0.298142717
16,0.294232649
16.008,0.290322581
16.016,0.286412512
16.024,0.282502444
16.032,0.279569892
16.04,0.276637341
16.048,0.275659824
16.056,0.277614858
16.064,0.283479961
16.072,0.295210166
16.08,0.313782991
16.088,0.340175953
16.096,0.373411535
16.104,0.408602151
16.112,0.445747801
16.12,0.484848485
16.128,0.521016618
16.136,0.555229717
16.144,0.58455523
16.152,0.608993157
16.16,0.626588465
16.168,0.639296188
16.176,0.651026393
16.184,0.659824047
16.192,0.666666667
16.2,0.671554252
16.208,0.674486804
16.216,0.674486804
16.224,0.672531769
16.232,0.668621701
16.24,0.661779081
16.248,0.653958944
16.256,0.643206256
16.264,0.632453568
16.272,0.62170088
16.28,0.60801564
16.288,0.593352884
16.296,0.576735093
16.304,0.560117302
16.312,0.541544477
16.32,0.523949169
16.328,0.507331378
16.336,0.491691105
16.344,0.478005865
16.352,0.465298143
16.36,0.454545455
16.368,0.446725318
16.376,0.439882698
16.384,0.433040078
16.392,0.427174976
16.4,0.421309873
16.408,0.41544477
16.416,0.410557185
16.424,0.405669599
16.432,0.400782014
16.44,0.396871945
16.448,0.39198436
16.456,0.387096774
16.464,0.382209189
16.472,0.37829912
16.48,0.374389052
16.488,0.370478983
16.496,0.365591398
16.504,0.360703812
16.512,0.355816227
16.52,0.351906158
16.528,0.347018573
16.536,0.342130987
16.544,0.337243402
16.552,0.332355816
16.56,0.326490714
16.568,0.319648094
16.576,0.313782991
16.584,0.308895406
16.592,0.303030303
16.6,0.2971652
16.608,0.292277615
16.616,0.288367546
16.624,0.285434995
16.632,0.282502444
16.64,0.279569892
16.648,0.276637341
16.656,0.27370479
16.664,0.269794721
16.672,0.26686217
16.68,0.264907136
16.688,0.262952102
16.696,0.260997067
16.704,0.259042033
16.712,0.257086999
16.72,0.255131965
16.728,0.254154448
16.736,0.252199413
16.744,0.250244379
16.752,0.248289345
16.76,0.245356794
16.768,0.242424242
16.776,0.239491691
16.784,0.237536657
16.792,0.235581623
16.8,0.233626588
16.808,0.231671554
16.816,0.228739003
16.824,0.226783969
16.832,0.223851417
16.84,0.2228739
16.848,0.220918866
16.856,0.219941349
16.864,0.219941349
16.872,0.218963832
16.88,0.218963832
16.888,0.219941349
16.896,0.221896383
16.904,0.2228739
16.912,0.224828935
16.92,0.226783969
16.928,0.232649071
16.936,0.24340176
16.944,0.26001955
16.952,0.284457478
16.96,0.316715543
16.968,0.356793744
16.976,0.400782014
16.984,0.446725318
16.992,0.486803519
17,0.521994135
17.008,0.558162268
17.016,0.592375367
17.024,0.622678397
17.032,0.648093842
17.04,0.669599218
17.048,0.687194526
17.056,0.700879765
17.064,0.709677419
17.072,0.715542522
17.08,0.717497556
17.088,0.717497556
17.096,0.713587488
17.104,0.707722385
17.112,0.699902248
17.12,0.691104594
17.128,0.679374389
17.136,0.667644184
17.144,0.653958944
17.152,0.639296188
17.16,0.623655914
17.168,0.60801564
17.176,0.592375367
17.184,0.57771261
17.192,0.563049853
17.2,0.549364614
17.208,0.537634409
17.216,0.52688172
17.224,0.517106549
17.232,0.508308895
17.24,0.499511241
17.248,0.492668622
17.256,0.485826002
17.264,0.479960899
17.272,0.47311828
17.28,0.467253177
17.288,0.460410557
17.296,0.453567937
17.304,0.446725318
17.312,0.440860215
17.32,0.43597263
17.328,0.430107527
17.336,0.424242424
17.344,0.418377322
17.352,0.411534702
17.36,0.405669599
17.368,0.398826979
17.376,0.392961877
17.384,0.386119257
17.392,0.380254154
17.4,0.374389052
17.408,0.368523949
17.416,0.363636364
17.424,0.359726295
17.432,0.355816227
17.44,0.352883675
17.448,0.351906158
17.456,0.355816227
17.464,0.364613881
17.472,0.380254154
17.48,0.401759531
17.488,0.428152493
17.496,0.457478006
17.504,0.488758553
17.512,0.519061584
17.52,0.543499511
17.528,0.56402737
17.536,0.583577713
17.544,0.600195503
17.552,0.61485826
17.56,0.625610948
17.568,0.633431085
17.576,0.639296188
17.584,0.644183773
17.592,0.646138807
17.6,0.646138807
17.608,0.64516129
17.616,0.642228739
17.624,0.637341153
17.632,0.630498534
17.64,0.622678397
17.648,0.611925709
17.656,0.599217986
17.664,0.585532747
17.672,0.57086999
17.68,0.554252199
17.688,0.537634409
17.696,0.520039101
17.704,0.501466276
17.712,0.484848485
17.72,0.469208211
17.728,0.456500489
17.736,0.446725318
17.744,0.437927664
17.752,0.431085044
17.76,0.424242424
17.768,0.418377322
17.776,0.413489736
17.784,0.409579668
17.792,0.405669599
17.8,0.401759531
17.808,0.397849462
17.816,0.394916911
17.824,0.391006843
17.832,0.387096774
17.84,0.384164223
17.848,0.379276637
17.856,0.373411535
17.864,0.368523949
17.872,0.362658847
17.88,0.356793744
17.888,0.351906158
17.896,0.347018573
17.904,0.342130987
17.912,0.337243402
17.92,0.332355816
17.928,0.327468231
17.936,0.322580645
17.944,0.318670577
17.952,0.315738025
17.96,0.311827957
17.968,0.307917889
17.976,0.303030303
17.984,0.298142717
17.992,0.294232649
18,0.290322581
18.008,0.286412512
18.016,0.283479961
18.024,0.279569892
18.032,0.276637341
18.04,0.274682307
18.048,0.27370479
18.056,0.272727273
18.064,0.270772239
18.072,0.269794721
18.08,0.267839687
18.088,0.26686217
18.096,0.264907136
18.104,0.261974585
18.112,0.26001955
18.12,0.257086999
18.128,0.255131965
18.136,0.254154448
18.144,0.253176931
18.152,0.260997067
18.16,0.27370479
18.168,0.279569892
18.176,0.281524927
18.184,0.282502444
18.192,0.283479961
18.2,0.286412512
18.208,0.294232649
18.216,0.308895406
18.224,0.331378299
18.232,0.362658847
18.24,0.401759531
18.248,0.444770283
18.256,0.483870968
18.264,0.520039101
18.272,0.559139785
18.28,0.595307918
18.288,0.6285435
18.296,0.656891496
18.304,0.681329423
18.312,0.701857283
18.32,0.71945259
18.328,0.732160313
18.336,0.740957967
18.344,0.746823069
18.352,0.749755621
18.36,0.749755621
18.368,0.746823069
18.376,0.741935484
18.384,0.737047898
18.392,0.729227761
18.4,0.720430108
18.408,0.709677419
18.416,0.697947214
18.424,0.683284457
18.432,0.667644184
18.44,0.650048876
18.448,0.632453568
18.456,0.61485826
18.464,0.599217986
18.472,0.58455523
18.48,0.571847507
18.488,0.560117302
18.496,0.549364614
18.504,0.54056696
18.512,0.531769306
18.52,0.523949169
18.528,0.516129032
18.536,0.509286413
18.544,0.501466276
18.552,0.494623656
18.56,0.487781036
18.568,0.481915934
18.576,0.477028348
18.584,0.470185728
18.592,0.464320626
18.6,0.457478006
18.608,0.450635386
18.616,0.443792766
18.624,0.437927664
18.632,0.432062561
18.64,0.426197458
18.648,0.420332356
18.656,0.413489736
18.664,0.407624633
18.672,0.402737048
18.68,0.397849462
18.688,0.392961877
18.696,0.388074291
18.704,0.382209189
18.712,0.377321603
18.72,0.372434018
18.728,0.368523949
18.736,0.364613881
18.744,0.359726295
18.752,0.355816227
18.76,0.350928641
18.768,0.346041056
18.776,0.342130987
18.784,0.338220919
18.792,0.333333333
18.8,0.329423265
18.808,0.325513196
18.816,0.321603128
18.824,0.318670577
18.832,0.315738025
18.84,0.313782991
18.848,0.311827957
18.856,0.31085044
18.864,0.309872923
18.872,0.307917889
18.88,0.307917889
18.888,0.307917889
18.896,0.306940371
18.904,0.305962854
18.912,0.30400782
18.92,0.301075269
18.928,0.299120235
18.936,0.2971652
18.944,0.296187683
18.952,0.294232649
18.96,0.293255132
18.968,0.293255132
18.976,0.292277615
18.984,0.292277615
18.992,0.292277615
19,0.291300098
19.008,0.291300098
19.016,0.291300098
19.024,0.291300098
19.032,0.291300098
19.04,0.291300098
19.048,0.291300098
19.056,0.291300098
19.064,0.294232649
19.072,0.302052786
19.08,0.315738025
19.088,0.338220919
19.096,0.363636364
19.104,0.392961877
19.112,0.431085044
19.12,0.474095797
19.128,0.518084066
19.136,0.561094819
19.144,0.600195503
19.152,0.636363636
19.16,0.667644184
19.168,0.694037146
19.176,0.716520039
19.184,0.734115347
19.192,0.748778104
19.2,0.75659824
19.208,0.761485826
19.216,0.764418377
19.224,0.766373412
19.232,0.765395894
19.24,0.76344086
19.248,0.758553275
19.256,0.752688172
19.264,0.744868035
19.272,0.734115347
19.28,0.722385142
19.288,0.708699902
19.296,0.693059629
19.304,0.677419355
19.312,0.662756598
19.32,0.647116325
19.328,0.630498534
19.336,0.61485826
19.344,0.600195503
19.352,0.586510264
19.36,0.573802542
19.368,0.563049853
19.376,0.552297165
19.384,0.542521994
19.392,0.53372434
19.4,0.524926686
19.408,0.518084066
19.416,0.512218964
19.424,0.507331378
19.432,0.501466276
19.44,0.495601173
19.448,0.490713587
19.456,0.484848485
19.464,0.478983382
19.472,0.47311828
19.48,0.467253177
19.488,0.460410557
19.496,0.454545455
19.504,0.447702835
19.512,0.442815249
19.52,0.437927664
19.528,0.432062561
19.536,0.427174976
19.544,0.42228739
19.552,0.417399804
19.56,0.412512219
19.568,0.407624633
19.576,0.401759531
19.584,0.395894428
19.592,0.390029326
19.6,0.384164223
19.608,0.37829912
19.616,0.373411535
19.624,0.369501466
19.632,0.365591398
19.64,0.360703812
19.648,0.355816227
19.656,0.350928641
19.664,0.347018573
19.672,0.343108504
19.68,0.339198436
19.688,0.335288368
19.696,0.331378299
19.704,0.327468231
19.712,0.324535679
19.72,0.321603128
19.728,0.320625611
19.736,0.318670577
19.744,0.316715543
19.752,0.314760508
19.76,0.312805474
19.768,0.31085044
19.776,0.307917889
19.784,0.305962854
19.792,0.303030303
19.8,0.301075269
19.808,0.298142717
19.816,0.296187683
19.824,0.295210166
19.832,0.294232649
19.84,0.293255132
19.848,0.291300098
19.856,0.289345064
19.864,0.287390029
19.872,0.284457478
19.88,0.281524927
19.888,0.277614858
19.896,0.274682307
19.904,0.271749756
19.912,0.269794721
19.92,0.267839687
19.928,0.26686217
19.936,0.267839687
19.944,0.268817204
19.952,0.268817204
19.96,0.269794721
19.968,0.270772239
19.976,0.275659824
19.984,0.283479961
19.992,0.298142717
20,0.318670577
20.008,0.34799609
20.016,0.384164223
20.024,0.426197458
20.032,0.465298143
20.04,0.502443793
20.048,0.543499511
20.056,0.583577713
20.064,0.62170088
20.072,0.654936461
20.08,0.683284457
20.088,0.707722385
20.096,0.727272727
20.104,0.742913001
20.112,0.753665689
20.12,0.760508309
20.128,0.764418377
20.136,0.76344086
20.144,0.760508309
20.152,0.754643206
20.16,0.746823069
20.168,0.737047898
20.176,0.72629521
20.184,0.714565005
20.192,0.701857283
20.2,0.683284457
20.208,0.661779081
20.216,0.643206256
20.224,0.626588465
20.232,0.610948192
20.24,0.595307918
20.248,0.581622678
20.256,0.569892473
20.264,0.558162268
20.272,0.546432063
20.28,0.536656891
20.288,0.528836755
20.296,0.521016618
20.304,0.515151515
20.312,0.509286413
20.32,0.504398827
20.328,0.499511241
20.336,0.494623656
20.344,0.488758553
20.352,0.482893451
20.36,0.478005865
20.368,0.472140762
20.376,0.465298143
20.384,0.45943304
20.392,0.45259042
20.4,0.445747801
20.408,0.439882698
20.416,0.433040078
20.424,0.426197458
20.432,0.419354839
20.44,0.413489736
20.448,0.407624633
20.456,0.403714565
20.464,0.399804497
20.472,0.394916911
20.48,0.390029326
20.488,0.38514174
20.496,0.380254154
20.504,0.375366569
20.512,0.370478983
20.52,0.365591398
20.528,0.360703812
20.536,0.355816227
20.544,0.351906158
20.552,0.34799609
20.56,0.345063539
20.568,0.343108504
20.576,0.340175953
20.584,0.337243402
20.592,0.333333333
20.6,0.329423265
20.608,0.325513196
20.616,0.321603128
20.624,0.318670577
20.632,0.315738025
20.64,0.313782991
20.648,0.311827957
20.656,0.309872923
20.664,0.307917889
20.672,0.306940371
20.68,0.304985337
20.688,0.305962854
20.696,0.309872923
20.704,0.319648094
20.712,0.338220919
20.72,0.363636364
20.728,0.396871945
20.736,0.43597263
20.744,0.478005865
20.752,0.520039101
20.76,0.560117302
20.768,0.592375367
20.776,0.618768328
20.784,0.644183773
20.792,0.666666667
20.8,0.686217009
20.808,0.703812317
20.816,0.718475073
20.824,0.730205279
20.832,0.739002933
20.84,0.745845552
20.848,0.748778104
20.856,0.749755621
20.864,0.747800587
20.872,0.742913001
20.88,0.737047898
20.888,0.730205279
20.896,0.721407625
20.904,0.712609971
20.912,0.701857283
20.92,0.68914956
20.928,0.675464321
20.936,0.659824047
20.944,0.642228739
20.952,0.623655914
20.96,0.605083089
20.968,0.587487781
20.976,0.571847507
20.984,0.558162268
20.992,0.545454545
21,0.53372434
21.008,0.522971652
21.016,0.513196481
21.024,0.504398827
21.032,0.49657869
21.04,0.48973607
21.048,0.483870968
21.056,0.478005865
21.064,0.472140762
21.072,0.467253177
21.08,0.462365591
21.088,0.457478006
21.096,0.451612903
21.104,0.446725318
21.112,0.440860215
21.12,0.434995112
21.128,0.42913001
21.136,0.424242424
21.144,0.418377322
21.152,0.412512219
21.16,0.405669599
21.168,0.398826979
21.176,0.391006843
21.184,0.384164223
21.192,0.379276637
21.2,0.374389052
21.208,0.369501466
21.216,0.364613881
21.224,0.359726295
21.232,0.355816227
21.24,0.350928641
21.248,0.346041056
21.256,0.34115347
21.264,0.335288368
21.272,0.330400782
21.28,0.326490714
21.288,0.324535679
21.296,0.326490714
21.304,0.332355816
21.312,0.345063539
21.32,0.365591398
21.328,0.392961877
21.336,0.426197458
21.344,0.463343109
21.352,0.500488759
21.36,0.536656891
21.368,0.569892473
21.376,0.599217986
21.384,0.623655914
21.392,0.64516129
21.4,0.660801564
21.408,0.671554252
21.416,0.68230694
21.424,0.690127077
21.432,0.69599218
21.44,0.698924731
21.448,0.699902248
21.456,0.697947214
21.464,0.694037146
21.472,0.68914956
21.48,0.68230694
21.488,0.673509286
21.496,0.664711632
21.504,0.653958944
21.512,0.643206256
21.52,0.630498534
21.528,0.615835777
21.536,0.600195503
21.544,0.582600196
21.552,0.565004888
21.56,0.54740958
21.568,0.529814272
21.576,0.513196481
21.584,0.499511241
21.592,0.485826002
21.6,0.475073314
21.608,0.467253177
21.616,0.461388074
21.624,0.454545455
21.632,0.449657869
21.64,0.443792766
21.648,0.437927664
21.656,0.432062561
21.664,0.427174976
21.672,0.421309873
21.68,0.416422287
21.688,0.411534702
21.696,0.406647116
21.704,0.402737048
21.712,0.398826979
21.72,0.395894428
21.728,0.391006843
21.736,0.386119257
21.744,0.381231672
21.752,0.374389052
21.76,0.367546432
21.768,0.361681329
21.776,0.35483871
21.784,0.348973607
21.792,0.343108504
21.8,0.338220919
21.808,0.333333333
21.816,0.330400782
21.824,0.327468231
21.832,0.324535679
21.84,0.320625611
21.848,0.316715543
21.856,0.312805474
21.864,0.309872923
21.872,0.306940371
21.88,0.30400782
21.888,0.301075269
21.896,0.298142717
21.904,0.296187683
21.912,0.294232649
21.92,0.293255132
21.928,0.292277615
21.936,0.290322581
21.944,0.288367546
21.952,0.285434995
21.96,0.282502444
21.968,0.278592375
21.976,0.274682307
21.984,0.270772239
21.992,0.267839687
22,0.26686217
22.008,0.270772239
22.016,0.279569892
22.024,0.293255132
22.032,0.311827957
22.04,0.339198436
22.048,0.374389052
22.056,0.413489736
22.064,0.455522972
22.072,0.49657869
22.08,0.535679374
22.088,0.57086999
22.096,0.602150538
22.104,0.629521017
22.112,0.65200391
22.12,0.670576735
22.128,0.686217009
22.136,0.69599218
22.144,0.701857283
22.152,0.705767351
22.16,0.708699902
22.168,0.709677419
22.176,0.708699902
22.184,0.705767351
22.192,0.700879765
22.2,0.694037146
22.208,0.686217009
22.216,0.675464321
22.224,0.662756598
22.232,0.649071359
22.24,0.634408602
22.248,0.618768328
22.256,0.601173021
22.264,0.582600196
22.272,0.565004888
22.28,0.548387097
22.288,0.53372434
22.296,0.519061584
22.304,0.506353861
22.312,0.495601173
22.32,0.484848485
22.328,0.476050831
22.336,0.467253177
22.344,0.461388074
22.352,0.455522972
22.36,0.450635386
22.368,0.446725318
22.376,0.441837732
22.384,0.437927664
22.392,0.433040078
22.4,0.427174976
22.408,0.42228739
22.416,0.416422287
22.424,0.410557185
22.432,0.405669599
22.44,0.400782014
22.448,0.396871945
22.456,0.392961877
22.464,0.388074291
22.472,0.382209189
22.48,0.377321603
22.488,0.3714565
22.496,0.365591398
22.504,0.360703812
22.512,0.355816227
22.52,0.349951124
22.528,0.345063539
22.536,0.339198436
22.544,0.33431085
22.552,0.329423265
22.56,0.325513196
22.568,0.320625611
22.576,0.315738025
22.584,0.31085044
22.592,0.305962854
22.6,0.301075269
22.608,0.2971652
22.616,0.294232649
22.624,0.291300098
22.632,0.289345064
22.64,0.286412512
22.648,0.283479961
22.656,0.28054741
22.664,0.278592375
22.672,0.274682307
22.68,0.270772239
22.688,0.26686217
22.696,0.263929619
22.704,0.260997067
22.712,0.258064516
22.72,0.255131965
22.728,0.252199413
22.736,0.250244379
22.744,0.247311828
22.752,0.244379277
22.76,0.24340176
22.768,0.242424242
22.776,0.240469208
22.784,0.238514174
22.792,0.235581623
22.8,0.234604106
22.808,0.233626588
22.816,0.233626588
22.824,0.234604106
22.832,0.237536657
22.84,0.240469208
22.848,0.244379277
22.856,0.248289345
22.864,0.252199413
22.872,0.256109482
22.88,0.26001955
22.888,0.262952102
22.896,0.265884653
22.904,0.268817204
22.912,0.270772239
22.92,0.272727273
22.928,0.27370479
22.936,0.27370479
22.944,0.27370479
22.952,0.27370479
22.96,0.27370479
22.968,0.27370479
22.976,0.274682307
22.984,0.27370479
22.992,0.272727273
23,0.269794721
23.008,0.267839687
23.016,0.264907136
23.024,0.264907136
23.032,0.268817204
23.04,0.278592375
23.048,0.298142717
23.056,0.325513196
23.064,0.362658847
23.072,0.398826979
23.08,0.43597263
23.088,0.479960899
23.096,0.525904203
23.104,0.569892473
23.112,0.610948192
23.12,0.648093842
23.128,0.680351906
23.136,0.707722385
23.144,0.730205279
23.152,0.749755621
23.16,0.76344086
23.168,0.774193548
23.176,0.779081134
23.184,0.781036168
23.192,0.781036168
23.2,0.779081134
23.208,0.776148583
23.216,0.77028348
23.224,0.761485826
23.232,0.751710655
23.24,0.739002933
23.248,0.725317693
23.256,0.710654936
23.264,0.694037146
23.272,0.677419355
23.28,0.659824047
23.288,0.644183773
23.296,0.629521017
23.304,0.61485826
23.312,0.600195503
23.32,0.587487781
23.328,0.575757576
23.336,0.565982405
23.344,0.557184751
23.352,0.549364614
23.36,0.543499511
23.368,0.536656891
23.376,0.530791789
23.384,0.524926686
23.392,0.519061584
23.4,0.514173998
23.408,0.508308895
23.416,0.501466276
23.424,0.494623656
23.432,0.487781036
23.44,0.479960899
23.448,0.47311828
23.456,0.46627566
23.464,0.458455523
23.472,0.451612903
23.48,0.444770283
23.488,0.437927664
23.496,0.431085044
23.504,0.425219941
23.512,0.418377322
23.52,0.411534702
23.528,0.403714565
23.536,0.396871945
23.544,0.390029326
23.552,0.384164223
23.56,0.381231672
23.568,0.382209189
23.576,0.389051808
23.584,0.402737048
23.592,0.42228739
23.6,0.447702835
23.608,0.47311828
23.616,0.498533724
23.624,0.527859238
23.632,0.556207234
23.64,0.583577713
23.648,0.60801564
23.656,0.627565982
23.664,0.644183773
23.672,0.657869013
23.68,0.668621701
23.688,0.676441838
23.696,0.681329423
23.704,0.683284457
23.712,0.683284457
23.72,0.681329423
23.728,0.679374389
23.736,0.674486804
23.744,0.668621701
23.752,0.660801564
23.76,0.65200391
23.768,0.641251222
23.776,0.6285435
23.784,0.613880743
23.792,0.597262952
23.8,0.579667644
23.808,0.563049853
23.816,0.548387097
23.824,0.531769306
23.832,0.516129032
23.84,0.501466276
23.848,0.487781036
23.856,0.476050831
23.864,0.465298143
23.872,0.456500489
23.88,0.448680352
23.888,0.442815249
23.896,0.437927664
23.904,0.433040078
23.912,0.42913001
23.92,0.426197458
23.928,0.42228739
23.936,0.418377322
23.944,0.414467253
23.952,0.409579668
23.96,0.405669599
23.968,0.400782014
23.976,0.396871945
23.984,0.392961877
23.992,0.388074291
24,0.383186706
24.008,0.37829912
24.016,0.373411535
24.024,0.369501466
24.032,0.364613881
24.04,0.358748778
24.048,0.352883675
24.056,0.347018573
24.064,0.34115347
24.072,0.336265885
24.08,0.331378299
24.088,0.326490714
24.096,0.320625611
24.104,0.315738025
24.112,0.31085044
24.12,0.306940371
24.128,0.30400782
24.136,0.300097752
24.144,0.296187683
24.152,0.293255132
24.16,0.290322581
24.168,0.287390029
24.176,0.284457478
24.184,0.282502444
24.192,0.28054741
24.2,0.277614858
24.208,0.275659824
24.216,0.274682307
24.224,0.272727273
24.232,0.271749756
24.24,0.271749756
24.248,0.271749756
24.256,0.270772239
24.264,0.269794721
24.272,0.269794721
24.28,0.268817204
24.288,0.268817204
24.296,0.271749756
24.304,0.277614858
24.312,0.28054741
24.32,0.281524927
24.328,0.281524927
24.336,0.282502444
24.344,0.282502444
24.352,0.281524927
24.36,0.281524927
24.368,0.28054741
24.376,0.279569892
24.384,0.279569892
24.392,0.279569892
24.4,0.28054741
24.408,0.28054741
24.416,0.279569892
24.424,0.279569892
24.432,0.279569892
24.44,0.28054741
24.448,0.281524927
24.456,0.281524927
24.464,0.281524927
24.472,0.281524927
24.48,0.28054741
24.488,0.279569892
24.496,0.278592375
24.504,0.276637341
24.512,0.274682307
24.52,0.27370479
24.528,0.271749756
24.536,0.270772239
24.544,0.269794721
24.552,0.269794721
24.56,0.269794721
24.568,0.269794721
24.576,0.268817204
24.584,0.268817204
24.592,0.268817204
24.6,0.267839687
24.608,0.267839687
24.616,0.26686217
24.624,0.265884653
24.632,0.263929619
24.64,0.261974585
24.648,0.260997067
24.656,0.261974585
24.664,0.262952102
24.672,0.26686217
24.68,0.276637341
24.688,0.294232649
24.696,0.319648094
24.704,0.352883675
24.712,0.392961877
24.72,0.437927664
24.728,0.484848485
24.736,0.530791789
24.744,0.574780059
24.752,0.609970674
24.76,0.639296188
24.768,0.668621701
24.776,0.695014663
24.784,0.718475073
24.792,0.739002933
24.8,0.755620723
24.808,0.768328446
24.816,0.778103617
24.824,0.783968719
24.832,0.786901271
24.84,0.786901271
24.848,0.783968719
24.856,0.778103617
24.864,0.77028348
24.872,0.761485826
24.88,0.751710655
24.888,0.740957967
24.896,0.729227761
24.904,0.716520039
24.912,0.7028348
24.92,0.688172043
24.928,0.673509286
24.936,0.65884653
24.944,0.644183773
24.952,0.630498534
24.96,0.618768328
24.968,0.608993157
24.976,0.599217986
24.984,0.590420332
24.992,0.582600196
25,0.574780059
25.008,0.566959922
25.016,0.560117302
25.024,0.553274682
25.032,0.546432063
25.04,0.54056696
25.048,0.53372434
25.056,0.527859238
25.064,0.521994135
25.072,0.517106549
25.08,0.51026393
25.088,0.50342131
25.096,0.49657869
25.104,0.48973607
25.112,0.483870968
25.12,0.478005865
25.128,0.472140762
25.136,0.465298143
25.144,0.45943304
25.152,0.453567937
25.16,0.446725318
25.168,0.439882698
25.176,0.434017595
25.184,0.42913001
25.192,0.42228739
25.2,0.416422287
25.208,0.409579668
25.216,0.401759531
25.224,0.394916911
25.232,0.387096774
25.24,0.380254154
25.248,0.374389052
25.256,0.367546432
25.264,0.362658847
25.272,0.356793744
25.28,0.352883675
25.288,0.348973607
25.296,0.344086022
25.304,0.339198436
25.312,0.33431085
25.32,0.330400782
25.328,0.326490714
25.336,0.323558162
25.344,0.322580645
25.352,0.320625611
25.36,0.320625611
25.368,0.319648094
25.376,0.318670577
25.384,0.318670577
25.392,0.319648094
25.4,0.319648094
25.408,0.322580645
25.416,0.328445748
25.424,0.340175953
25.432,0.356793744
25.44,0.380254154
25.448,0.409579668
25.456,0.442815249
25.464,0.478005865
25.472,0.513196481
25.48,0.546432063
25.488,0.572825024
25.496,0.593352884
25.504,0.613880743
25.512,0.631476051
25.52,0.647116325
25.528,0.660801564
25.536,0.670576735
25.544,0.677419355
25.552,0.68230694
25.56,0.684261975
25.568,0.683284457
25.576,0.680351906
25.584,0.676441838
25.592,0.671554252
25.6,0.664711632
25.608,0.656891496
25.616,0.647116325
25.624,0.636363636
25.632,0.623655914
25.64,0.608993157
25.648,0.593352884
25.656,0.57771261
25.664,0.562072336
25.672,0.54740958
25.68,0.53372434
25.688,0.521994135
25.696,0.512218964
25.704,0.504398827
25.712,0.49657869
25.72,0.48973607
25.728,0.482893451
25.736,0.477028348
25.744,0.471163245
25.752,0.465298143
25.76,0.460410557
25.768,0.455522972
25.776,0.450635386
25.784,0.446725318
25.792,0.441837732
25.8,0.438905181
25.808,0.434995112
25.816,0.431085044
25.824,0.426197458
25.832,0.421309873
25.84,0.416422287
25.848,0.411534702
25.856,0.406647116
25.864,0.400782014
25.872,0.395894428
25.88,0.391006843
25.888,0.387096774
25.896,0.382209189
25.904,0.37829912
25.912,0.374389052
25.92,0.369501466
25.928,0.364613881
25.936,0.359726295
25.944,0.35483871
25.952,0.349951124
25.96,0.346041056
25.968,0.34115347
25.976,0.336265885
25.984,0.332355816
25.992,0.328445748
26,0.324535679
26.008,0.321603128
26.016,0.319648094
26.024,0.316715543
26.032,0.314760508
26.04,0.311827957
26.048,0.308895406
26.056,0.306940371
26.064,0.30400782
26.072,0.301075269
26.08,0.299120235
26.088,0.2971652
26.096,0.295210166
26.104,0.293255132
26.112,0.292277615
26.12,0.292277615
26.128,0.293255132
26.136,0.2971652
26.144,0.305962854
26.152,0.321603128
26.16,0.344086022
26.168,0.373411535
26.176,0.407624633
26.184,0.445747801
26.192,0.485826002
26.2,0.524926686
26.208,0.562072336
26.216,0.591397849
26.224,0.615835777
26.232,0.639296188
26.24,0.660801564
26.248,0.680351906
26.256,0.69599218
26.264,0.707722385
26.272,0.717497556
26.28,0.724340176
26.288,0.729227761
26.296,0.731182796
26.304,0.731182796
26.312,0.729227761
26.32,0.72629521
26.328,0.721407625
26.336,0.714565005
26.344,0.697947214
26.352,0.676441838
26.36,0.659824047
26.368,0.64516129
26.376,0.630498534
26.384,0.615835777
26.392,0.600195503
26.4,0.585532747
26.408,0.569892473
26.416,0.556207234
26.424,0.543499511
26.432,0.532746823
26.44,0.522971652
26.448,0.514173998
26.456,0.505376344
26.464,0.49657869
26.472,0.488758553
26.48,0.480938416
26.488,0.474095797
26.496,0.467253177
26.504,0.461388074
26.512,0.456500489
26.52,0.450635386
26.528,0.444770283
26.536,0.440860215
26.544,0.43597263
26.552,0.431085044
26.56,0.426197458
26.568,0.420332356
26.576,0.41544477
26.584,0.409579668
26.592,0.403714565
26.6,0.397849462
26.608,0.39198436
26.616,0.386119257
26.624,0.379276637
26.632,0.3714565
26.64,0.365591398
26.648,0.361681329
26.656,0.356793744
26.664,0.35483871
26.672,0.356793744
26.68,0.363636364
26.688,0.375366569
26.696,0.39198436
26.704,0.413489736
26.712,0.437927664
26.72,0.464320626
26.728,0.491691105
26.736,0.517106549
26.744,0.536656891
26.752,0.553274682
26.76,0.569892473
26.768,0.58455523
26.776,0.596285435
26.784,0.606060606
26.792,0.612903226
26.8,0.617790811
26.808,0.620723363
26.816,0.62170088
26.824,0.62170088
26.832,0.619745846
26.84,0.616813294
26.848,0.611925709
26.856,0.607038123
26.864,0.600195503
26.872,0.592375367
26.88,0.582600196
26.888,0.571847507
26.896,0.560117302
26.904,0.546432063
26.912,0.531769306
26.92,0.518084066
26.928,0.50342131
26.936,0.48973607
26.944,0.477028348
26.952,0.46627566
26.96,0.457478006
26.968,0.448680352
26.976,0.438905181
26.984,0.431085044
26.992,0.423264907
27,0.417399804
27.008,0.412512219
27.016,0.407624633
27.024,0.403714565
27.032,0.399804497
27.04,0.395894428
27.048,0.39198436
27.056,0.388074291
27.064,0.38514174
27.072,0.381231672
27.08,0.377321603
27.088,0.373411535
27.096,0.369501466
27.104,0.364613881
27.112,0.360703812
27.12,0.35483871
27.128,0.349951124
27.136,0.344086022
27.144,0.339198436
27.152,0.33431085
27.16,0.331378299
27.168,0.328445748
27.176,0.325513196
27.184,0.322580645
27.192,0.318670577
27.2,0.313782991
27.208,0.309872923
27.216,0.304985337
27.224,0.301075269
27.232,0.298142717
27.24,0.295210166
27.248,0.293255132
27.256,0.291300098
27.264,0.289345064
27.272,0.288367546
27.28,0.286412512
27.288,0.284457478
27.296,0.282502444
27.304,0.279569892
27.312,0.277614858
27.32,0.275659824
27.328,0.27370479
27.336,0.271749756
27.344,0.269794721
27.352,0.268817204
27.36,0.26686217
27.368,0.265884653
27.376,0.265884653
27.384,0.265884653
27.392,0.265884653
27.4,0.265884653
27.408,0.265884653
27.416,0.265884653
27.424,0.265884653
27.432,0.264907136
27.44,0.263929619
27.448,0.262952102
27.456,0.261974585
27.464,0.260997067
27.472,0.26001955
27.48,0.26001955
27.488,0.26001955
27.496,0.259042033
27.504,0.259042033
27.512,0.258064516
27.52,0.257086999
27.528,0.256109482
27.536,0.256109482
27.544,0.255131965
27.552,0.255131965
27.56,0.255131965
27.568,0.255131965
27.576,0.255131965
27.584,0.255131965
27.592,0.256109482
27.6,0.256109482
27.608,0.256109482
27.616,0.255131965
27.624,0.254154448
27.632,0.253176931
27.64,0.252199413
27.648,0.252199413
27.656,0.252199413
27.664,0.252199413
27.672,0.252199413
27.68,0.253176931
27.688,0.253176931
27.696,0.254154448
27.704,0.255131965
27.712,0.254154448
27.72,0.254154448
27.728,0.253176931
27.736,0.253176931
27.744,0.252199413
27.752,0.252199413
27.76,0.252199413
27.768,0.252199413
27.776,0.251221896
27.784,0.251221896
27.792,0.251221896
27.8,0.251221896
27.808,0.250244379
27.816,0.248289345
27.824,0.246334311
27.832,0.244379277
27.84,0.242424242
27.848,0.24340176
27.856,0.248289345
27.864,0.260997067
27.872,0.281524927
27.88,0.31085044
27.888,0.34799609
27.896,0.384164223
27.904,0.421309873
27.912,0.464320626
27.92,0.509286413
27.928,0.551319648
27.936,0.590420332
27.944,0.624633431
27.952,0.653958944
27.96,0.678396872
27.968,0.698924731
27.976,0.715542522
27.984,0.727272727
27.992,0.736070381
28,0.739002933
28.008,0.739002933
28.016,0.737047898
28.024,0.73313783
28.032,0.72629521
28.04,0.717497556
28.048,0.706744868
28.056,0.695014663
28.064,0.68230694
28.072,0.668621701
28.08,0.654936461
28.088,0.640273705
28.096,0.626588465
28.104,0.613880743
28.112,0.603128055
28.12,0.591397849
28.128,0.580645161
28.136,0.57086999
28.144,0.562072336
28.152,0.554252199
28.16,0.54740958
28.168,0.541544477
28.176,0.536656891
28.184,0.532746823
28.192,0.527859238
28.2,0.523949169
28.208,0.519061584
28.216,0.515151515
28.224,0.51026393
28.232,0.505376344
28.24,0.500488759
28.248,0.494623656
28.256,0.487781036
28.264,0.481915934
28.272,0.475073314
28.28,0.468230694
28.288,0.462365591
28.296,0.456500489
28.304,0.449657869
28.312,0.444770283
28.32,0.439882698
28.328,0.434017595
28.336,0.428152493
28.344,0.42228739
28.352,0.416422287
28.36,0.409579668
28.368,0.403714565
28.376,0.396871945
28.384,0.391006843
28.392,0.387096774
28.4,0.38514174
28.408,0.382209189
28.416,0.379276637
28.424,0.377321603
28.432,0.37829912
28.44,0.382209189
28.448,0.391006843
28.456,0.405669599
28.464,0.425219941
28.472,0.449657869
28.48,0.478005865
28.488,0.508308895
28.496,0.537634409
28.504,0.565004888
28.512,0.590420332
28.52,0.611925709
28.528,0.627565982
28.536,0.639296188
28.544,0.650048876
28.552,0.65884653
28.56,0.666666667
28.568,0.672531769
28.576,0.675464321
28.584,0.677419355
28.592,0.676441838
28.6,0.675464321
28.608,0.671554252
28.616,0.667644184
28.624,0.661779081
28.632,0.654936461
28.64,0.647116325
28.648,0.637341153
28.656,0.625610948
28.664,0.612903226
28.672,0.598240469
28.68,0.583577713
28.688,0.568914956
28.696,0.554252199
28.704,0.539589443
28.712,0.525904203
28.72,0.512218964
28.728,0.499511241
28.736,0.488758553
28.744,0.479960899
28.752,0.471163245
28.76,0.463343109
28.768,0.456500489
28.776,0.451612903
28.784,0.446725318
28.792,0.442815249
28.8,0.438905181
28.808,0.434995112
28.816,0.431085044
28.824,0.428152493
28.832,0.424242424
28.84,0.420332356
28.848,0.417399804
28.856,0.412512219
28.864,0.408602151
28.872,0.403714565
28.88,0.398826979
28.888,0.393939394
28.896,0.389051808
28.904,0.384164223
28.912,0.379276637
28.92,0.374389052
28.928,0.369501466
28.936,0.365591398
28.944,0.361681329
28.952,0.357771261
28.96,0.353861193
28.968,0.348973607
28.976,0.343108504
28.984,0.338220919
28.992,0.333333333
29,0.328445748
29.008,0.324535679
29.016,0.320625611
29.024,0.31769306
29.032,0.314760508
29.04,0.311827957
29.048,0.308895406
29.056,0.307917889
29.064,0.305962854
29.072,0.30400782
29.08,0.302052786
29.088,0.300097752
29.096,0.298142717
29.104,0.296187683
29.112,0.294232649
29.12,0.291300098
29.128,0.289345064
29.136,0.287390029
29.144,0.285434995
29.152,0.284457478
29.16,0.284457478
29.168,0.283479961
29.176,0.283479961
29.184,0.283479961
29.192,0.283479961
29.2,0.283479961
29.208,0.283479961
29.216,0.283479961
29.224,0.283479961
29.232,0.282502444
29.24,0.281524927
29.248,0.28054741
29.256,0.279569892
29.264,0.279569892
29.272,0.279569892
29.28,0.278592375
29.288,0.278592375
29.296,0.277614858
29.304,0.277614858
29.312,0.276637341
29.32,0.276637341
29.328,0.276637341
29.336,0.277614858
29.344,0.278592375
29.352,0.278592375
29.36,0.278592375
29.368,0.279569892
29.376,0.278592375
29.384,0.277614858
29.392,0.276637341
29.4,0.277614858
29.408,0.283479961
29.416,0.295210166
29.424,0.314760508
29.432,0.34115347
29.44,0.375366569
29.448,0.413489736
29.456,0.454545455
29.464,0.495601173
29.472,0.530791789
29.48,0.562072336
29.488,0.593352884
29.496,0.622678397
29.504,0.650048876
29.512,0.673509286
29.52,0.693059629
29.528,0.708699902
29.536,0.721407625
29.544,0.730205279
29.552,0.737047898
29.56,0.73998045
29.568,0.740957967
29.576,0.738025415
29.584,0.734115347
29.592,0.728250244
29.6,0.722385142
29.608,0.713587488
29.616,0.704789834
29.624,0.693059629
29.632,0.681329423
29.64,0.667644184
29.648,0.652981427
29.656,0.638318671
29.664,0.623655914
29.672,0.608993157
29.68,0.596285435
29.688,0.58455523
29.696,0.573802542
29.704,0.563049853
29.712,0.553274682
29.72,0.543499511
29.728,0.534701857
29.736,0.52688172
29.744,0.520039101
29.752,0.513196481
29.76,0.506353861
29.768,0.500488759
29.776,0.494623656
29.784,0.48973607
29.792,0.484848485
29.8,0.479960899
29.808,0.474095797
29.816,0.468230694
29.824,0.461388074
29.832,0.455522972
29.84,0.448680352
29.848,0.441837732
29.856,0.43597263
29.864,0.42913001
29.872,0.42228739
29.88,0.416422287
29.888,0.410557185
29.896,0.406647116
29.904,0.400782014
29.912,0.395894428
29.92,0.390029326
29.928,0.38514174
29.936,0.379276637
29.944,0.373411535
29.952,0.367546432
29.96,0.361681329
29.968,0.356793744
29.976,0.351906158
29.984,0.34799609
29.992,0.345063539
30,0.342130987
30.008,0.339198436
30.016,0.336265885
30.024,0.333333333
30.032,0.330400782
30.04,0.327468231
30.048,0.324535679
30.056,0.321603128
30.064,0.319648094
30.072,0.316715543
30.08,0.313782991
30.088,0.311827957
30.096,0.309872923
30.104,0.309872923
30.112,0.312805474
30.12,0.320625611
30.128,0.333333333
30.136,0.353861193
30.144,0.380254154
30.152,0.411534702
30.16,0.445747801
30.168,0.479960899
30.176,0.513196481
30.184,0.543499511
30.192,0.57086999
30.2,0.591397849
30.208,0.60801564
30.216,0.623655914
30.224,0.638318671
30.232,0.650048876
30.24,0.65884653
30.248,0.664711632
30.256,0.668621701
30.264,0.670576735
30.272,0.670576735
30.28,0.668621701
30.288,0.663734115
30.296,0.657869013
30.304,0.651026393
30.312,0.643206256
30.32,0.633431085
30.328,0.62170088
30.336,0.608993157
30.344,0.594330401
30.352,0.579667644
30.36,0.56402737
30.368,0.549364614
30.376,0.534701857
30.384,0.521016618
30.392,0.508308895
30.4,0.49657869
30.408,0.485826002
30.416,0.478005865
30.424,0.471163245
30.432,0.464320626
30.44,0.455522972
30.448,0.444770283
30.456,0.436950147
30.464,0.430107527
30.472,0.424242424
30.48,0.418377322
30.488,0.413489736
30.496,0.409579668
30.504,0.404692082
30.512,0.400782014
30.52,0.396871945
30.528,0.393939394
30.536,0.389051808
30.544,0.384164223
30.552,0.379276637
30.56,0.373411535
30.568,0.368523949
30.576,0.363636364
30.584,0.358748778
30.592,0.353861193
30.6,0.348973607
30.608,0.344086022
30.616,0.338220919
30.624,0.33431085
30.632,0.329423265
30.64,0.324535679
30.648,0.319648094
30.656,0.315738025
30.664,0.31085044
30.672,0.307917889
30.68,0.30400782
30.688,0.301075269
30.696,0.298142717
30.704,0.295210166
30.712,0.292277615
30.72,0.289345064
30.728,0.288367546
30.736,0.286412512
30.744,0.284457478
30.752,0.282502444
30.76,0.28054741
30.768,0.278592375
30.776,0.276637341
30.784,0.274682307
30.792,0.272727273
30.8,0.270772239
30.808,0.268817204
30.816,0.26686217
30.824,0.264907136
30.832,0.263929619
30.84,0.262952102
30.848,0.261974585
30.856,0.260997067
30.864,0.26001955
30.872,0.258064516
30.88,0.257086999
30.888,0.256109482
30.896,0.255131965
30.904,0.254154448
30.912,0.253176931
30.92,0.252199413
30.928,0.251221896
30.936,0.250244379
30.944,0.250244379
30.952,0.250244379
30.96,0.252199413
30.968,0.258064516
30.976,0.269794721
30.984,0.288367546
30.992,0.315738025
31,0.348973607
31.008,0.388074291
31.016,0.42913001
31.024,0.471163245
31.032,0.51026393
31.04,0.542521994
31.048,0.568914956
31.056,0.596285435
31.064,0.620723363
31.072,0.642228739
31.08,0.660801564
31.088,0.675464321
31.096,0.687194526
31.104,0.695014663
31.112,0.699902248
31.12,0.701857283
31.128,0.701857283
31.136,0.698924731
31.144,0.694037146
31.152,0.688172043
31.16,0.680351906
31.168,0.672531769
31.176,0.662756598
31.184,0.65200391
31.192,0.639296188
31.2,0.624633431
31.208,0.609970674
31.216,0.594330401
31.224,0.578690127
31.232,0.563049853
31.24,0.549364614
31.248,0.535679374
31.256,0.523949169
31.264,0.514173998
31.272,0.504398827
31.28,0.495601173
31.288,0.487781036
31.296,0.479960899
31.304,0.47311828
31.312,0.467253177
31.32,0.461388074
31.328,0.454545455
31.336,0.448680352
31.344,0.441837732
31.352,0.43597263
31.36,0.431085044
31.368,0.425219941
31.376,0.420332356
31.384,0.414467253
31.392,0.408602151
31.4,0.402737048
31.408,0.396871945
31.416,0.390029326
31.424,0.384164223
31.432,0.37829912
31.44,0.374389052
31.448,0.372434018
31.456,0.373411535
31.464,0.376344086
31.472,0.382209189
31.48,0.392961877
31.488,0.406647116
31.496,0.424242424
31.504,0.442815249
31.512,0.463343109
31.52,0.481915934
31.528,0.499511241
31.536,0.514173998
31.544,0.525904203
31.552,0.534701857
31.56,0.54056696
31.568,0.542521994
31.576,0.542521994
31.584,0.54056696
31.592,0.536656891
31.6,0.532746823
31.608,0.52688172
31.616,0.519061584
31.624,0.51026393
31.632,0.499511241
31.64,0.486803519
31.648,0.47311828
31.656,0.457478006
31.664,0.441837732
31.672,0.42913001
31.68,0.416422287
31.688,0.404692082
31.696,0.392961877
31.704,0.382209189
31.712,0.372434018
31.72,0.364613881
31.728,0.358748778
31.736,0.352883675
31.744,0.348973607
31.752,0.346041056
31.76,0.343108504
31.768,0.34115347
31.776,0.340175953
31.784,0.340175953
31.792,0.339198436
31.8,0.338220919
31.808,0.337243402
31.816,0.336265885
31.824,0.33431085
31.832,0.333333333
31.84,0.330400782
31.848,0.328445748
31.856,0.325513196
31.864,0.322580645
31.872,0.319648094
31.88,0.31769306
31.888,0.315738025
31.896,0.313782991
31.904,0.311827957
31.912,0.309872923
31.92,0.306940371
31.928,0.30400782
31.936,0.300097752
31.944,0.295210166
31.952,0.291300098
31.96,0.287390029
31.968,0.283479961
31.976,0.28054741
31.984,0.278592375
31.992,0.276637341
32,0.274682307
32.008,0.271749756
32.016,0.268817204
32.024,0.264907136
32.032,0.261974585
32.04,0.258064516
32.048,0.255131965
32.056,0.253176931
32.064,0.250244379
32.072,0.248289345
32.08,0.247311828
32.088,0.246334311
32.096,0.247311828
32.104,0.247311828
32.112,0.247311828
32.12,0.247311828
32.128,0.246334311
32.136,0.245356794
32.144,0.244379277
32.152,0.244379277
32.16,0.246334311
32.168,0.254154448
32.176,0.268817204
32.184,0.291300098
32.192,0.316715543
32.2,0.345063539
32.208,0.382209189
32.216,0.42228739
32.224,0.463343109
32.232,0.502443793
32.24,0.538611926
32.248,0.568914956
32.256,0.595307918
32.264,0.616813294
32.272,0.635386119
32.28,0.649071359
32.288,0.659824047
32.296,0.66568915
32.304,0.667644184
32.312,0.669599218
32.32,0.668621701
32.328,0.66568915
32.336,0.660801564
32.344,0.653958944
32.352,0.646138807
32.36,0.636363636
32.368,0.624633431
32.376,0.611925709
32.384,0.598240469
32.392,0.583577713
32.4,0.567937439
32.408,0.555229717
32.416,0.542521994
32.424,0.529814272
32.432,0.518084066
32.44,0.507331378
32.448,0.49657869
32.456,0.486803519
32.464,0.478005865
32.472,0.470185728
32.48,0.462365591
32.488,0.460410557
32.496,0.462365591
32.504,0.45943304
32.512,0.454545455
32.52,0.449657869
32.528,0.443792766
32.536,0.437927664
32.544,0.432062561
32.552,0.426197458
32.56,0.419354839
32.568,0.413489736
32.576,0.407624633
32.584,0.400782014
32.592,0.394916911
32.6,0.389051808
32.608,0.383186706
32.616,0.377321603
32.624,0.373411535
32.632,0.367546432
32.64,0.362658847
32.648,0.357771261
32.656,0.352883675
32.664,0.349951124
32.672,0.347018573
32.68,0.344086022
32.688,0.34115347
32.696,0.339198436
32.704,0.336265885
32.712,0.332355816
32.72,0.330400782
32.728,0.328445748
32.736,0.325513196
32.744,0.322580645
32.752,0.319648094
32.76,0.315738025
32.768,0.311827957
32.776,0.308895406
32.784,0.304985337
32.792,0.301075269
32.8,0.2971652
32.808,0.293255132
32.816,0.290322581
32.824,0.287390029
32.832,0.286412512
32.84,0.284457478
32.848,0.282502444
32.856,0.28054741
32.864,0.278592375
32.872,0.277614858
32.88,0.275659824
32.888,0.274682307
32.896,0.272727273
32.904,0.271749756
32.912,0.269794721
32.92,0.269794721
32.928,0.269794721
32.936,0.269794721
32.944,0.268817204
32.952,0.268817204
32.96,0.267839687
32.968,0.26686217
32.976,0.26686217
32.984,0.26686217
32.992,0.26686217
33,0.26686217
33.008,0.26686217
33.016,0.26686217
33.024,0.265884653
33.032,0.264907136
33.04,0.265884653
33.048,0.265884653
33.056,0.265884653
33.064,0.264907136
33.072,0.263929619
33.08,0.262952102
33.088,0.260997067
33.096,0.259042033
33.104,0.257086999
33.112,0.256109482
33.12,0.259042033
33.128,0.26686217
33.136,0.279569892
33.144,0.2971652
33.152,0.324535679
33.16,0.360703812
33.168,0.403714565
33.176,0.450635386
33.184,0.498533724
33.192,0.546432063
33.2,0.591397849
33.208,0.631476051
33.216,0.667644184
33.224,0.697947214
33.232,0.724340176
33.24,0.741935484
33.248,0.755620723
33.256,0.767350929
33.264,0.778103617
33.272,0.784946237
33.28,0.788856305
33.288,0.790811339
33.296,0.789833822
33.304,0.785923754
33.312,0.780058651
33.32,0.771260997
33.328,0.760508309
33.336,0.748778104
33.344,0.735092864
33.352,0.722385142
33.36,0.706744868
33.368,0.691104594
33.376,0.674486804
33.384,0.657869013
33.392,0.640273705
33.4,0.624633431
33.408,0.608993157
33.416,0.594330401
33.424,0.581622678
33.432,0.569892473
33.44,0.559139785
33.448,0.550342131
33.456,0.541544477
33.464,0.532746823
33.472,0.524926686
33.48,0.517106549
33.488,0.51026393
33.496,0.50342131
33.504,0.49657869
33.512,0.48973607
33.52,0.481915934
33.528,0.475073314
33.536,0.467253177
33.544,0.460410557
33.552,0.45259042
33.56,0.446725318
33.568,0.440860215
33.576,0.434995112
33.584,0.428152493
33.592,0.420332356
33.6,0.412512219
33.608,0.404692082
33.616,0.397849462
33.624,0.391006843
33.632,0.38514174
33.64,0.379276637
33.648,0.373411535
33.656,0.368523949
33.664,0.363636364
33.672,0.359726295
33.68,0.35483871
33.688,0.349951124
33.696,0.345063539
33.704,0.340175953
33.712,0.335288368
33.72,0.331378299
33.728,0.327468231
33.736,0.323558162
33.744,0.319648094
33.752,0.316715543
33.76,0.313782991
33.768,0.31085044
33.776,0.309872923
33.784,0.306940371
33.792,0.304985337
33.8,0.302052786
33.808,0.300097752
33.816,0.298142717
33.824,0.295210166
33.832,0.293255132
33.84,0.290322581
33.848,0.288367546
33.856,0.286412512
33.864,0.283479961
33.872,0.282502444
33.88,0.281524927
33.888,0.279569892
33.896,0.277614858
33.904,0.278592375
33.912,0.282502444
33.92,0.292277615
33.928,0.309872923
33.936,0.336265885
33.944,0.369501466
33.952,0.409579668
33.96,0.451612903
33.968,0.495601173
33.976,0.532746823
33.984,0.56402737
33.992,0.596285435
34,0.625610948
34.008,0.65200391
34.016,0.674486804
34.024,0.693059629
34.032,0.706744868
34.04,0.717497556
34.048,0.724340176
34.056,0.728250244
34.064,0.730205279
34.072,0.729227761
34.08,0.72629521
34.088,0.721407625
34.096,0.714565005
34.104,0.707722385
34.112,0.698924731
34.12,0.68914956
34.128,0.677419355
34.136,0.664711632
34.144,0.651026393
34.152,0.635386119
34.16,0.619745846
34.168,0.603128055
34.176,0.585532747
34.184,0.57086999
34.192,0.557184751
34.2,0.542521994
34.208,0.528836755
34.216,0.517106549
34.224,0.505376344
34.232,0.495601173
34.24,0.486803519
34.248,0.478005865
34.256,0.471163245
34.264,0.463343109
34.272,0.457478006
34.28,0.450635386
34.288,0.445747801
34.296,0.440860215
34.304,0.43597263
34.312,0.430107527
34.32,0.425219941
34.328,0.419354839
34.336,0.413489736
34.344,0.407624633
34.352,0.401759531
34.36,0.395894428
34.368,0.391006843
34.376,0.38514174
34.384,0.379276637
34.392,0.375366569
34.4,0.3714565
34.408,0.367546432
34.416,0.362658847
34.424,0.357771261
34.432,0.352883675
34.44,0.34799609
34.448,0.343108504
34.456,0.337243402
34.464,0.332355816
34.472,0.327468231
34.48,0.321603128
34.488,0.316715543
34.496,0.312805474
34.504,0.308895406
34.512,0.306940371
34.52,0.303030303
34.528,0.299120235
34.536,0.294232649
34.544,0.287390029
34.552,0.283479961
34.56,0.279569892
34.568,0.276637341
34.576,0.274682307
34.584,0.27370479
34.592,0.271749756
34.6,0.269794721
34.608,0.268817204
34.616,0.267839687
34.624,0.26686217
34.632,0.265884653
34.64,0.264907136
34.648,0.262952102
34.656,0.261974585
34.664,0.260997067
34.672,0.259042033
34.68,0.257086999
34.688,0.255131965
34.696,0.253176931
34.704,0.251221896
34.712,0.251221896
34.72,0.253176931
34.728,0.259042033
34.736,0.270772239
34.744,0.289345064
34.752,0.314760508
34.76,0.347018573
34.768,0.38514174
34.776,0.425219941
34.784,0.46627566
34.792,0.504398827
34.8,0.54056696
34.808,0.571847507
34.816,0.595307918
34.824,0.613880743
34.832,0.630498534
34.84,0.64516129
34.848,0.656891496
34.856,0.66568915
34.864,0.671554252
34.872,0.674486804
34.88,0.674486804
34.888,0.672531769
34.896,0.668621701
34.904,0.662756598
34.912,0.654936461
34.92,0.646138807
34.928,0.635386119
34.936,0.623655914
34.944,0.610948192
34.952,0.596285435
34.96,0.580645161
34.968,0.56402737
34.976,0.546432063
34.984,0.529814272
34.992,0.513196481
35,0.498533724
35.008,0.483870968
35.016,0.471163245
35.024,0.460410557
35.032,0.451612903
35.04,0.443792766
35.048,0.43597263
35.056,0.430107527
35.064,0.424242424
35.072,0.420332356
35.08,0.416422287
35.088,0.413489736
35.096,0.410557185
35.104,0.407624633
35.112,0.405669599
35.12,0.402737048
35.128,0.400782014
35.136,0.398826979
35.144,0.395894428
35.152,0.392961877
35.16,0.390029326
35.168,0.386119257
35.176,0.381231672
35.184,0.377321603
35.192,0.372434018
35.2,0.368523949
35.208,0.362658847
35.216,0.357771261
35.224,0.351906158
35.232,0.347018573
35.24,0.342130987
35.248,0.336265885
35.256,0.330400782
35.264,0.324535679
35.272,0.319648094
35.28,0.314760508
35.288,0.31085044
35.296,0.307917889
35.304,0.304985337
35.312,0.301075269
35.32,0.2971652
35.328,0.293255132
35.336,0.290322581
35.344,0.288367546
35.352,0.284457478
35.36,0.282502444
35.368,0.28054741
35.376,0.278592375
35.384,0.277614858
35.392,0.275659824
35.4,0.27370479
35.408,0.271749756
35.416,0.269794721
35.424,0.26686217
35.432,0.264907136
35.44,0.262952102
35.448,0.262952102
35.456,0.263929619
35.464,0.263929619
35.472,0.263929619
35.48,0.263929619
35.488,0.262952102
35.496,0.261974585
35.504,0.26001955
35.512,0.259042033
35.52,0.258064516
35.528,0.256109482
35.536,0.255131965
35.544,0.254154448
35.552,0.254154448
35.56,0.255131965
35.568,0.256109482
35.576,0.260997067
35.584,0.271749756
35.592,0.289345064
35.6,0.313782991
35.608,0.346041056
35.616,0.38514174
35.624,0.426197458
35.632,0.469208211
35.64,0.51026393
35.648,0.548387097
35.656,0.578690127
35.664,0.603128055
35.672,0.626588465
35.68,0.648093842
35.688,0.666666667
35.696,0.68230694
35.704,0.694037146
35.712,0.7028348
35.72,0.708699902
35.728,0.711632454
35.736,0.712609971
35.744,0.711632454
35.752,0.708699902
35.76,0.703812317
35.768,0.696969697
35.776,0.68914956
35.784,0.680351906
35.792,0.670576735
35.8,0.65884653
35.808,0.646138807
35.816,0.633431085
35.824,0.618768328
35.832,0.605083089
35.84,0.590420332
35.848,0.575757576
35.856,0.561094819
35.864,0.548387097
35.872,0.536656891
35.88,0.524926686
35.888,0.514173998
35.896,0.50342131
35.904,0.494623656
35.912,0.486803519
35.92,0.479960899
35.928,0.47311828
35.936,0.467253177
35.944,0.460410557
35.952,0.454545455
35.96,0.448680352
35.968,0.443792766
35.976,0.437927664
35.984,0.432062561
35.992,0.426197458
36,0.420332356
36.008,0.413489736
36.016,0.406647116
36.024,0.400782014
36.032,0.394916911
36.04,0.388074291
36.048,0.382209189
36.056,0.377321603
36.064,0.3714565
36.072,0.366568915
36.08,0.362658847
36.088,0.356793744
36.096,0.351906158
36.104,0.346041056
36.112,0.34115347
36.12,0.336265885
36.128,0.331378299
36.136,0.326490714
36.144,0.321603128
36.152,0.316715543
36.16,0.312805474
36.168,0.308895406
36.176,0.306940371
36.184,0.304985337
36.192,0.302052786
36.2,0.299120235
36.208,0.296187683
36.216,0.293255132
36.224,0.289345064
36.232,0.286412512
36.24,0.283479961
36.248,0.281524927
36.256,0.278592375
36.264,0.276637341
36.272,0.275659824
36.28,0.276637341
36.288,0.279569892
36.296,0.287390029
36.304,0.302052786
36.312,0.322580645
36.32,0.350928641
36.328,0.384164223
36.336,0.421309873
36.344,0.45943304
36.352,0.495601173
36.36,0.528836755
36.368,0.558162268
36.376,0.583577713
36.384,0.602150538
36.392,0.616813294
36.4,0.629521017
36.408,0.641251222
36.416,0.650048876
36.424,0.656891496
36.432,0.660801564
36.44,0.662756598
36.448,0.662756598
36.456,0.660801564
36.464,0.656891496
36.472,0.65200391
36.48,0.646138807
36.488,0.639296188
36.496,0.631476051
36.504,0.62170088
36.512,0.609970674
36.52,0.597262952
36.528,0.583577713
36.536,0.567937439
36.544,0.552297165
36.552,0.536656891
36.56,0.521016618
36.568,0.506353861
36.576,0.493646139
36.584,0.485826002
36.592,0.480938416
36.6,0.475073314
36.608,0.469208211
36.616,0.461388074
36.624,0.454545455
36.632,0.447702835
36.64,0.441837732
36.648,0.43597263
36.656,0.431085044
36.664,0.425219941
36.672,0.420332356
36.68,0.41544477
36.688,0.409579668
36.696,0.404692082
36.704,0.399804497
36.712,0.394916911
36.72,0.390029326
36.728,0.38514174
36.736,0.380254154
36.744,0.374389052
36.752,0.369501466
36.76,0.363636364
36.768,0.357771261
36.776,0.351906158
36.784,0.346041056
36.792,0.340175953
36.8,0.33431085
36.808,0.329423265
36.816,0.326490714
36.824,0.322580645
36.832,0.31769306
36.84,0.313782991
36.848,0.309872923
36.856,0.306940371
36.864,0.303030303
36.872,0.299120235
36.88,0.296187683
36.888,0.293255132
36.896,0.290322581
36.904,0.287390029
36.912,0.284457478
36.92,0.283479961
36.928,0.282502444
36.936,0.28054741
36.944,0.277614858
36.952,0.275659824
36.96,0.272727273
36.968,0.269794721
36.976,0.26686217
36.984,0.264907136
36.992,0.262952102
37,0.260997067
37.008,0.259042033
37.016,0.258064516
37.024,0.258064516
37.032,0.256109482
37.04,0.255131965
37.048,0.254154448
37.056,0.252199413
37.064,0.251221896
37.072,0.250244379
37.08,0.249266862
37.088,0.248289345
37.096,0.247311828
37.104,0.246334311
37.112,0.245356794
37.12,0.246334311
37.128,0.246334311
37.136,0.246334311
37.144,0.246334311
37.152,0.246334311
37.16,0.245356794
37.168,0.244379277
37.176,0.244379277
37.184,0.244379277
37.192,0.244379277
37.2,0.24340176
37.208,0.24340176
37.216,0.242424242
37.224,0.242424242
37.232,0.24340176
37.24,0.244379277
37.248,0.244379277
37.256,0.244379277
37.264,0.244379277
37.272,0.244379277
37.28,0.244379277
37.288,0.24340176
37.296,0.242424242
37.304,0.241446725
37.312,0.239491691
37.32,0.23655914
37.328,0.23655914
37.336,0.238514174
37.344,0.245356794
37.352,0.26001955
37.36,0.282502444
37.368,0.314760508
37.376,0.35483871
37.384,0.401759531
37.392,0.450635386
37.4,0.498533724
37.408,0.544477028
37.416,0.585532747
37.424,0.622678397
37.432,0.650048876
37.44,0.671554252
37.448,0.692082111
37.456,0.709677419
37.464,0.725317693
37.472,0.737047898
37.48,0.745845552
37.488,0.752688172
37.496,0.75659824
37.504,0.757575758
37.512,0.75659824
37.52,0.752688172
37.528,0.746823069
37.536,0.738025415
37.544,0.729227761
37.552,0.717497556
37.56,0.705767351
37.568,0.692082111
37.576,0.677419355
37.584,0.662756598
37.592,0.647116325
37.6,0.631476051
37.608,0.616813294
37.616,0.603128055
37.624,0.589442815
37.632,0.57771261
37.64,0.566959922
37.648,0.558162268
37.656,0.550342131
37.664,0.543499511
37.672,0.535679374
37.68,0.527859238
37.688,0.520039101
37.696,0.512218964
37.704,0.504398827
37.712,0.495601173
37.72,0.487781036
37.728,0.478983382
37.736,0.471163245
37.744,0.462365591
37.752,0.455522972
37.76,0.449657869
37.768,0.442815249
37.776,0.436950147
37.784,0.432062561
37.792,0.426197458
37.8,0.420332356
37.808,0.413489736
37.816,0.405669599
37.824,0.397849462
37.832,0.39198436
37.84,0.388074291
37.848,0.388074291
37.856,0.391006843
37.864,0.398826979
37.872,0.411534702
37.88,0.42913001
37.888,0.450635386
37.896,0.475073314
37.904,0.499511241
37.912,0.524926686
37.92,0.548387097
37.928,0.569892473
37.936,0.588465298
37.944,0.603128055
37.952,0.61485826
37.96,0.62170088
37.968,0.624633431
37.976,0.627565982
37.984,0.627565982
37.992,0.626588465
38,0.622678397
38.008,0.617790811
38.016,0.610948192
38.024,0.601173021
38.032,0.590420332
38.04,0.578690127
38.048,0.565004888
38.056,0.549364614
38.064,0.535679374
38.072,0.521994135
38.08,0.506353861
38.088,0.48973607
38.096,0.474095797
38.104,0.458455523
38.112,0.444770283
38.12,0.433040078
38.128,0.423264907
38.136,0.416422287
38.144,0.409579668
38.152,0.404692082
38.16,0.400782014
38.168,0.396871945
38.176,0.393939394
38.184,0.391006843
38.192,0.388074291
38.2,0.386119257
38.208,0.383186706
38.216,0.380254154
38.224,0.377321603
38.232,0.373411535
38.24,0.369501466
38.248,0.364613881
38.256,0.359726295
38.264,0.355816227
38.272,0.351906158
38.28,0.348973607
38.288,0.345063539
38.296,0.34115347
38.304,0.337243402
38.312,0.333333333
38.32,0.328445748
38.328,0.323558162
38.336,0.319648094
38.344,0.314760508
38.352,0.31085044
38.36,0.305962854
38.368,0.302052786
38.376,0.299120235
38.384,0.296187683
38.392,0.293255132
38.4,0.289345064
38.408,0.285434995
38.416,0.281524927
38.424,0.278592375
38.432,0.275659824
38.44,0.27370479
38.448,0.270772239
38.456,0.269794721
38.464,0.267839687
38.472,0.26686217
38.48,0.265884653
38.488,0.265884653
38.496,0.26686217
38.504,0.26686217
38.512,0.26686217
38.52,0.265884653
38.528,0.264907136
38.536,0.262952102
38.544,0.260997067
38.552,0.26001955
38.56,0.258064516
38.568,0.256109482
38.576,0.255131965
38.584,0.254154448
38.592,0.254154448
38.6,0.254154448
38.608,0.254154448
38.616,0.254154448
38.624,0.254154448
38.632,0.258064516
38.64,0.263929619
38.648,0.265884653
38.656,0.267839687
38.664,0.267839687
38.672,0.26686217
38.68,0.265884653
38.688,0.26686217
38.696,0.269794721
38.704,0.275659824
38.712,0.287390029
38.72,0.306940371
38.728,0.335288368
38.736,0.3714565
38.744,0.412512219
38.752,0.457478006
38.76,0.502443793
38.768,0.545454545
38.776,0.585532747
38.784,0.620723363
38.792,0.65200391
38.8,0.676441838
38.808,0.695014663
38.816,0.712609971
38.824,0.729227761
38.832,0.743890518
38.84,0.754643206
38.848,0.761485826
38.856,0.766373412
38.864,0.767350929
38.872,0.765395894
38.88,0.761485826
38.888,0.75659824
38.896,0.748778104
38.904,0.740957967
38.912,0.732160313
38.92,0.721407625
38.928,0.710654936
38.936,0.697947214
38.944,0.684261975
38.952,0.669599218
38.96,0.653958944
38.968,0.638318671
38.976,0.623655914
38.984,0.608993157
38.992,0.594330401
39,0.581622678
39.008,0.569892473
39.016,0.559139785
39.024,0.548387097
39.032,0.538611926
39.04,0.529814272
39.048,0.521016618
39.056,0.514173998
39.064,0.507331378
39.072,0.500488759
39.08,0.493646139
39.088,0.486803519
39.096,0.478983382
39.104,0.471163245
39.112,0.463343109
39.12,0.456500489
39.128,0.449657869
39.136,0.442815249
39.144,0.436950147
39.152,0.430107527
39.16,0.424242424
39.168,0.418377322
39.176,0.412512219
39.184,0.406647116
39.192,0.399804497
39.2,0.393939394
39.208,0.388074291
39.216,0.382209189
39.224,0.37829912
39.232,0.372434018
39.24,0.367546432
39.248,0.361681329
39.256,0.355816227
39.264,0.349951124
39.272,0.345063539
39.28,0.340175953
39.288,0.336265885
39.296,0.333333333
39.304,0.330400782
39.312,0.327468231
39.32,0.325513196
39.328,0.324535679
39.336,0.321603128
39.344,0.318670577
39.352,0.314760508
39.36,0.311827957
39.368,0.308895406
39.376,0.305962854
39.384,0.30400782
39.392,0.301075269
39.4,0.2971652
39.408,0.294232649
39.416,0.292277615
39.424,0.292277615
39.432,0.295210166
39.44,0.302052786
39.448,0.315738025
39.456,0.336265885
39.464,0.363636364
39.472,0.396871945
39.48,0.433040078
39.488,0.472140762
39.496,0.509286413
39.504,0.544477028
39.512,0.575757576
39.52,0.602150538
39.528,0.622678397
39.536,0.637341153
39.544,0.651026393
39.552,0.662756598
39.56,0.671554252
39.568,0.678396872
39.576,0.683284457
39.584,0.685239492
39.592,0.684261975
39.6,0.68230694
39.608,0.677419355
39.616,0.671554252
39.624,0.664711632
39.632,0.655913978
39.64,0.647116325
39.648,0.637341153
39.656,0.626588465
39.664,0.61485826
39.672,0.602150538
39.68,0.588465298
39.688,0.573802542
39.696,0.559139785
39.704,0.544477028
39.712,0.529814272
39.72,0.516129032
39.728,0.50342131
39.736,0.492668622
39.744,0.482893451
39.752,0.475073314
39.76,0.468230694
39.768,0.461388074
39.776,0.455522972
39.784,0.448680352
39.792,0.442815249
39.8,0.436950147
39.808,0.431085044
39.816,0.425219941
39.824,0.419354839
39.832,0.414467253
39.84,0.408602151
39.848,0.404692082
39.856,0.401759531
39.864,0.397849462
39.872,0.392961877
39.88,0.389051808
39.888,0.384164223
39.896,0.379276637
39.904,0.374389052
39.912,0.370478983
39.92,0.365591398
39.928,0.360703812
39.936,0.355816227
39.944,0.349951124
39.952,0.346041056
39.96,0.343108504
39.968,0.339198436
39.976,0.33431085
39.984,0.329423265
39.992,0.323558162
40,0.318670577
40.008,0.313782991
40.016,0.308895406
40.024,0.30400782
40.032,0.301075269
40.04,0.2971652
40.048,0.295210166
40.056,0.293255132
40.064,0.293255132
40.072,0.292277615
40.08,0.290322581
40.088,0.289345064
40.096,0.288367546
40.104,0.286412512
40.112,0.285434995
40.12,0.284457478
40.128,0.282502444
40.136,0.281524927
40.144,0.279569892
40.152,0.277614858
40.16,0.277614858
40.168,0.276637341
40.176,0.275659824
40.184,0.274682307
40.192,0.27370479
40.2,0.271749756
40.208,0.270772239
40.216,0.269794721
40.224,0.268817204
40.232,0.268817204
40.24,0.268817204
40.248,0.268817204
40.256,0.268817204
40.264,0.268817204
40.272,0.269794721
40.28,0.268817204
40.288,0.267839687
40.296,0.26686217
40.304,0.265884653
40.312,0.263929619
40.32,0.262952102
40.328,0.261974585
40.336,0.260997067
40.344,0.260997067
40.352,0.26001955
40.36,0.26001955
40.368,0.26001955
40.376,0.26001955
40.384,0.26001955
40.392,0.259042033
40.4,0.259042033
40.408,0.258064516
40.416,0.257086999
40.424,0.256109482
40.432,0.256109482
40.44,0.256109482
40.448,0.256109482
40.456,0.257086999
40.464,0.258064516
40.472,0.259042033
40.48,0.260997067
40.488,0.261974585
40.496,0.261974585
40.504,0.260997067
40.512,0.26001955
40.52,0.259042033
40.528,0.258064516
40.536,0.257086999
40.544,0.255131965
40.552,0.254154448
40.56,0.251221896
40.568,0.249266862
40.576,0.248289345
40.584,0.248289345
40.592,0.252199413
40.6,0.26001955
40.608,0.275659824
40.616,0.300097752
40.624,0.332355816
40.632,0.370478983
40.64,0.414467253
40.648,0.45943304
40.656,0.505376344
40.664,0.54740958
40.672,0.587487781
40.68,0.618768328
40.688,0.640273705
40.696,0.657869013
40.704,0.677419355
40.712,0.695014663
40.72,0.709677419
40.728,0.721407625
40.736,0.730205279
40.744,0.736070381
40.752,0.738025415
40.76,0.737047898
40.768,0.734115347
40.776,0.728250244
40.784,0.720430108
40.792,0.710654936
40.8,0.699902248
40.808,0.688172043
40.816,0.674486804
40.824,0.660801564
40.832,0.646138807
40.84,0.631476051
40.848,0.615835777
40.856,0.601173021
40.864,0.587487781
40.872,0.574780059
40.88,0.56402737
40.888,0.554252199
40.896,0.546432063
40.904,0.539589443
40.912,0.532746823
40.92,0.52688172
40.928,0.521994135
40.936,0.516129032
40.944,0.511241447
40.952,0.507331378
40.96,0.502443793
40.968,0.497556207
40.976,0.491691105
40.984,0.485826002
40.992,0.478983382
41,0.47311828
41.008,0.46627566
41.016,0.460410557
41.024,0.453567937
41.032,0.447702835
41.04,0.441837732
41.048,0.43597263
41.056,0.431085044
41.064,0.425219941
41.072,0.419354839
41.08,0.412512219
41.088,0.406647116
41.096,0.399804497
41.104,0.394916911
41.112,0.391006843
41.12,0.386119257
41.128,0.381231672
41.136,0.376344086
41.144,0.372434018
41.152,0.368523949
41.16,0.365591398
41.168,0.361681329
41.176,0.358748778
41.184,0.35483871
41.192,0.350928641
41.2,0.34799609
41.208,0.346041056
41.216,0.344086022
41.224,0.343108504
41.232,0.34115347
41.24,0.340175953
41.248,0.338220919
41.256,0.337243402
41.264,0.335288368
41.272,0.333333333
41.28,0.331378299
41.288,0.328445748
41.296,0.325513196
41.304,0.323558162
41.312,0.321603128
41.32,0.320625611
41.328,0.319648094
41.336,0.31769306
41.344,0.316715543
41.352,0.315738025
41.36,0.314760508
41.368,0.313782991
41.376,0.312805474
41.384,0.31085044
41.392,0.309872923
41.4,0.308895406
41.408,0.306940371
41.416,0.306940371
41.424,0.306940371
41.432,0.306940371
41.44,0.305962854
41.448,0.30400782
41.456,0.303030303
41.464,0.300097752
41.472,0.298142717
41.48,0.296187683
41.488,0.296187683
41.496,0.300097752
41.504,0.309872923
41.512,0.327468231
41.52,0.351906158
41.528,0.379276637
41.536,0.408602151
41.544,0.444770283
41.552,0.483870968
41.56,0.522971652
41.568,0.560117302
41.576,0.594330401
41.584,0.624633431
41.592,0.651026393
41.6,0.674486804
41.608,0.694037146
41.616,0.710654936
41.624,0.721407625
41.632,0.728250244
41.64,0.734115347
41.648,0.738025415
41.656,0.73998045
41.664,0.740957967
41.672,0.73998045
41.68,0.737047898
41.688,0.732160313
41.696,0.72629521
41.704,0.71945259
41.712,0.709677419
41.72,0.698924731
41.728,0.686217009
41.736,0.674486804
41.744,0.661779081
41.752,0.647116325
41.76,0.632453568
41.768,0.616813294
41.776,0.602150538
41.784,0.586510264
41.792,0.571847507
41.8,0.559139785
41.808,0.546432063
41.816,0.536656891
41.824,0.52688172
41.832,0.519061584
41.84,0.513196481
41.848,0.506353861
41.856,0.500488759
41.864,0.494623656
41.872,0.488758553
41.88,0.482893451
41.888,0.477028348
41.896,0.472140762
41.904,0.46627566
41.912,0.460410557
41.92,0.453567937
41.928,0.447702835
41.936,0.440860215
41.944,0.434995112
41.952,0.42913001
41.96,0.423264907
41.968,0.417399804
41.976,0.410557185
41.984,0.404692082
41.992,0.398826979
42,0.39198436
42.008,0.386119257
42.016,0.381231672
42.024,0.376344086
42.032,0.3714565
42.04,0.366568915
42.048,0.362658847
42.056,0.359726295
42.064,0.355816227
42.072,0.350928641
42.08,0.346041056
42.088,0.342130987
42.096,0.337243402
42.104,0.333333333
42.112,0.329423265
42.12,0.325513196
42.128,0.321603128
42.136,0.31769306
42.144,0.316715543
42.152,0.316715543
42.16,0.320625611
42.168,0.329423265
42.176,0.345063539
42.184,0.366568915
42.192,0.394916911
42.2,0.426197458
42.208,0.461388074
42.216,0.495601173
42.224,0.527859238
42.232,0.557184751
42.24,0.583577713
42.248,0.605083089
42.256,0.620723363
42.264,0.632453568
42.272,0.642228739
42.28,0.651026393
42.288,0.656891496
42.296,0.660801564
42.304,0.662756598
42.312,0.662756598
42.32,0.660801564
42.328,0.657869013
42.336,0.65200391
42.344,0.64516129
42.352,0.638318671
42.36,0.630498534
42.368,0.62170088
42.376,0.611925709
42.384,0.600195503
42.392,0.587487781
42.4,0.573802542
42.408,0.558162268
42.416,0.542521994
42.424,0.52688172
42.432,0.511241447
42.44,0.495601173
42.448,0.482893451
42.456,0.471163245
42.464,0.461388074
42.472,0.453567937
42.48,0.446725318
42.488,0.440860215
42.496,0.434995112
42.504,0.42913001
42.512,0.424242424
42.52,0.419354839
42.528,0.414467253
42.536,0.410557185
42.544,0.406647116
42.552,0.402737048
42.56,0.398826979
42.568,0.395894428
42.576,0.39198436
42.584,0.388074291
42.592,0.384164223
42.6,0.381231672
42.608,0.377321603
42.616,0.373411535
42.624,0.369501466
42.632,0.365591398
42.64,0.360703812
42.648,0.35483871
42.656,0.349951124
42.664,0.345063539
42.672,0.339198436
42.68,0.336265885
42.688,0.333333333
42.696,0.329423265
42.704,0.325513196
42.712,0.321603128
42.72,0.31769306
42.728,0.303030303
42.736,0.283479961
42.744,0.271749756
42.752,0.262952102
42.76,0.257086999
42.768,0.253176931
42.776,0.249266862
42.784,0.247311828
42.792,0.245356794
42.8,0.244379277
42.808,0.242424242
42.816,0.239491691
42.824,0.237536657
42.832,0.235581623
42.84,0.233626588
42.848,0.231671554
42.856,0.230694037
42.864,0.228739003
42.872,0.227761486
42.88,0.226783969
42.888,0.226783969
42.896,0.226783969
42.904,0.225806452
42.912,0.223851417
42.92,0.2228739
42.928,0.220918866
42.936,0.218963832
42.944,0.217008798
42.952,0.216031281
42.96,0.216031281
42.968,0.216031281
42.976,0.217008798
42.984,0.217008798
42.992,0.217986315
43,0.218963832
43.008,0.218963832
43.016,0.217008798
43.024,0.216031281
43.032,0.215053763
43.04,0.214076246
43.048,0.214076246
43.056,0.214076246
43.064,0.214076246
43.072,0.214076246
43.08,0.214076246
43.088,0.214076246
43.096,0.214076246
43.104,0.215053763
43.112,0.216031281
43.12,0.216031281
43.128,0.216031281
43.136,0.215053763
43.144,0.215053763
43.152,0.214076246
43.16,0.214076246
43.168,0.212121212
43.176,0.211143695
43.184,0.209188661
43.192,0.206256109
43.2,0.205278592
43.208,0.204301075
43.216,0.205278592
43.224,0.208211144
43.232,0.217986315
43.24,0.234604106
43.248,0.260997067
43.256,0.295210166
43.264,0.337243402
43.272,0.383186706
43.28,0.431085044
43.288,0.478005865
43.296,0.521994135
43.304,0.557184751
43.312,0.585532747
43.32,0.613880743
43.328,0.639296188
43.336,0.662756598
43.344,0.68230694
43.352,0.698924731
43.36,0.712609971
43.368,0.722385142
43.376,0.729227761
43.384,0.732160313
43.392,0.732160313
43.4,0.729227761
43.408,0.723362659
43.416,0.716520039
43.424,0.707722385
43.432,0.696969697
43.44,0.684261975
43.448,0.670576735
43.456,0.654936461
43.464,0.639296188
43.472,0.622678397
43.48,0.606060606
43.488,0.589442815
43.496,0.573802542
43.504,0.559139785
43.512,0.54740958
43.52,0.537634409
43.528,0.527859238
43.536,0.520039101
43.544,0.512218964
43.552,0.504398827
43.56,0.497556207
43.568,0.490713587
43.576,0.483870968
43.584,0.476050831
43.592,0.469208211
43.6,0.463343109
43.608,0.457478006
43.616,0.45259042
43.624,0.447702835
43.632,0.441837732
43.64,0.43597263
43.648,0.430107527
43.656,0.423264907
43.664,0.416422287
43.672,0.408602151
43.68,0.401759531
43.688,0.395894428
43.696,0.389051808
43.704,0.382209189
43.712,0.375366569
43.72,0.368523949
43.728,0.362658847
43.736,0.357771261
43.744,0.351906158
43.752,0.346041056
43.76,0.339198436
43.768,0.33431085
43.776,0.329423265
43.784,0.324535679
43.792,0.320625611
43.8,0.31769306
43.808,0.313782991
43.816,0.31085044
43.824,0.306940371
43.832,0.30400782
43.84,0.302052786
43.848,0.299120235
43.856,0.296187683
43.864,0.293255132
43.872,0.291300098
43.88,0.288367546
43.888,0.286412512
43.896,0.284457478
43.904,0.282502444
43.912,0.28054741
43.92,0.277614858
43.928,0.275659824
43.936,0.274682307
43.944,0.27370479
43.952,0.272727273
43.96,0.270772239
43.968,0.268817204
43.976,0.26686217
43.984,0.264907136
43.992,0.261974585
44,0.26001955
44.008,0.259042033
44.016,0.26001955
44.024,0.265884653
44.032,0.277614858
44.04,0.293255132
44.048,0.313782991
44.056,0.343108504
44.064,0.37829912
44.072,0.418377322
44.08,0.460410557
44.088,0.501466276
44.096,0.541544477
44.104,0.576735093
44.112,0.608993157
44.12,0.637341153
44.128,0.660801564
44.136,0.680351906
44.144,0.693059629
44.152,0.700879765
44.16,0.708699902
44.168,0.714565005
44.176,0.717497556
44.184,0.71945259
44.192,0.718475073
44.2,0.716520039
44.208,0.712609971
44.216,0.705767351
44.224,0.697947214
44.232,0.68914956
44.24,0.678396872
44.248,0.667644184
44.256,0.655913978
44.264,0.642228739
44.272,0.627565982
44.28,0.611925709
44.288,0.594330401
44.296,0.57771261
44.304,0.560117302
44.312,0.544477028
44.32,0.528836755
44.328,0.515151515
44.336,0.502443793
44.344,0.491691105
44.352,0.482893451
44.36,0.475073314
44.368,0.467253177
44.376,0.45943304
44.384,0.45259042
44.392,0.446725318
44.4,0.439882698
44.408,0.434017595
44.416,0.427174976
44.424,0.421309873
44.432,0.413489736
44.44,0.406647116
44.448,0.399804497
44.456,0.393939394
44.464,0.389051808
44.472,0.384164223
44.48,0.37829912
44.488,0.3714565
44.496,0.365591398
44.504,0.358748778
44.512,0.351906158
44.52,0.346041056
44.528,0.340175953
44.536,0.33431085
44.544,0.329423265
44.552,0.323558162
44.56,0.318670577
44.568,0.314760508
44.576,0.309872923
44.584,0.304985337
44.592,0.300097752
44.6,0.295210166
44.608,0.290322581
44.616,0.286412512
44.624,0.282502444
44.632,0.279569892
44.64,0.275659824
44.648,0.272727273
44.656,0.268817204
44.664,0.26686217
44.672,0.265884653
44.68,0.263929619
44.688,0.261974585
44.696,0.26001955
44.704,0.258064516
44.712,0.256109482
44.72,0.254154448
44.728,0.252199413
44.736,0.250244379
44.744,0.248289345
44.752,0.246334311
44.76,0.245356794
44.768,0.24340176
44.776,0.24340176
44.784,0.244379277
44.792,0.24340176
44.8,0.242424242
44.808,0.252199413
44.816,0.267839687
44.824,0.275659824
44.832,0.283479961
44.84,0.293255132
44.848,0.308895406
44.856,0.331378299
44.864,0.361681329
44.872,0.396871945
44.88,0.432062561
44.888,0.465298143
44.896,0.502443793
44.904,0.54056696
44.912,0.574780059
44.92,0.606060606
44.928,0.632453568
44.936,0.653958944
44.944,0.672531769
44.952,0.686217009
44.96,0.697947214
44.968,0.706744868
44.976,0.712609971
44.984,0.714565005
44.992,0.714565005
45,0.712609971
45.008,0.708699902
45.016,0.703812317
45.024,0.696969697
45.032,0.68914956
45.04,0.680351906
45.048,0.669599218
45.056,0.657869013
45.064,0.64516129
45.072,0.632453568
45.08,0.617790811
45.088,0.604105572
45.096,0.591397849
45.104,0.576735093
45.112,0.562072336
45.12,0.54740958
45.128,0.534701857
45.136,0.521994135
45.144,0.511241447
45.152,0.501466276
45.16,0.492668622
45.168,0.484848485
45.176,0.478005865
45.184,0.472140762
45.192,0.46627566
45.2,0.461388074
45.208,0.455522972
45.216,0.449657869
45.224,0.443792766
45.232,0.437927664
45.24,0.432062561
45.248,0.425219941
45.256,0.419354839
45.264,0.412512219
45.272,0.406647116
45.28,0.400782014
45.288,0.394916911
45.296,0.390029326
45.304,0.38514174
45.312,0.381231672
45.32,0.376344086
45.328,0.370478983
45.336,0.365591398
45.344,0.360703812
45.352,0.35483871
45.36,0.349951124
45.368,0.345063539
45.376,0.340175953
45.384,0.336265885
45.392,0.332355816
45.4,0.329423265
45.408,0.327468231
45.416,0.323558162
45.424,0.320625611
45.432,0.31769306
45.44,0.314760508
45.448,0.311827957
45.456,0.309872923
45.464,0.306940371
45.472,0.303030303
45.48,0.300097752
45.488,0.2971652
45.496,0.293255132
45.504,0.291300098
45.512,0.289345064
45.52,0.287390029
45.528,0.284457478
45.536,0.282502444
45.544,0.282502444
45.552,0.286412512
45.56,0.295210166
45.568,0.309872923
45.576,0.332355816
45.584,0.360703812
45.592,0.394916911
45.6,0.432062561
45.608,0.465298143
45.616,0.495601173
45.624,0.527859238
45.632,0.558162268
45.64,0.58455523
45.648,0.607038123
45.656,0.624633431
45.664,0.639296188
45.672,0.650048876
45.68,0.65884653
45.688,0.664711632
45.696,0.667644184
45.704,0.669599218
45.712,0.669599218
45.72,0.666666667
45.728,0.662756598
45.736,0.657869013
45.744,0.651026393
45.752,0.643206256
45.76,0.634408602
45.768,0.623655914
45.776,0.610948192
45.784,0.598240469
45.792,0.583577713
45.8,0.567937439
45.808,0.552297165
45.816,0.536656891
45.824,0.522971652
45.832,0.511241447
45.84,0.498533724
45.848,0.486803519
45.856,0.476050831
45.864,0.46627566
45.872,0.457478006
45.88,0.449657869
45.888,0.442815249
45.896,0.437927664
45.904,0.432062561
45.912,0.427174976
45.92,0.42228739
45.928,0.418377322
45.936,0.41544477
45.944,0.411534702
45.952,0.407624633
45.96,0.402737048
45.968,0.397849462
45.976,0.392961877
45.984,0.388074291
45.992,0.383186706
46,0.379276637
46.008,0.374389052
46.016,0.369501466
46.024,0.363636364
46.032,0.358748778
46.04,0.35483871
46.048,0.348973607
46.056,0.343108504
46.064,0.336265885
46.072,0.331378299
46.08,0.326490714
46.088,0.321603128
46.096,0.31769306
46.104,0.313782991
46.112,0.309872923
46.12,0.308895406
46.128,0.31085044
46.136,0.316715543
46.144,0.326490714
46.152,0.342130987
46.16,0.363636364
46.168,0.391006843
46.176,0.420332356
46.184,0.449657869
46.192,0.478983382
46.2,0.505376344
46.208,0.527859238
46.216,0.54740958
46.224,0.563049853
46.232,0.575757576
46.24,0.58455523
46.248,0.589442815
46.256,0.594330401
46.264,0.596285435
46.272,0.596285435
46.28,0.595307918
46.288,0.591397849
46.296,0.586510264
46.304,0.579667644
46.312,0.571847507
46.32,0.562072336
46.328,0.552297165
46.336,0.541544477
46.344,0.531769306
46.352,0.521994135
46.36,0.511241447
46.368,0.499511241
46.376,0.488758553
46.384,0.477028348
46.392,0.46627566
46.4,0.456500489
46.408,0.447702835
46.416,0.440860215
46.424,0.434017595
46.432,0.428152493
46.44,0.423264907
46.448,0.420332356
46.456,0.416422287
46.464,0.413489736
46.472,0.409579668
46.48,0.405669599
46.488,0.401759531
46.496,0.397849462
46.504,0.393939394
46.512,0.389051808
46.52,0.384164223
46.528,0.379276637
46.536,0.373411535
46.544,0.367546432
46.552,0.361681329
46.56,0.357771261
46.568,0.352883675
46.576,0.34799609
46.584,0.342130987
46.592,0.337243402
46.6,0.332355816
46.608,0.327468231
46.616,0.321603128
46.624,0.316715543
46.632,0.312805474
46.64,0.307917889
46.648,0.30400782
46.656,0.301075269
46.664,0.298142717
46.672,0.295210166
46.68,0.291300098
46.688,0.287390029
46.696,0.283479961
46.704,0.28054741
46.712,0.277614858
46.72,0.274682307
46.728,0.272727273
46.736,0.270772239
46.744,0.269794721
46.752,0.268817204
46.76,0.268817204
46.768,0.268817204
46.776,0.267839687
46.784,0.26686217
46.792,0.264907136
46.8,0.261974585
46.808,0.259042033
46.816,0.256109482
46.824,0.253176931
46.832,0.251221896
46.84,0.253176931
46.848,0.260997067
46.856,0.276637341
46.864,0.300097752
46.872,0.326490714
46.88,0.356793744
46.888,0.393939394
46.896,0.434995112
46.904,0.475073314
46.912,0.513196481
46.92,0.548387097
46.928,0.579667644
46.936,0.606060606
46.944,0.6285435
46.952,0.648093842
46.96,0.663734115
46.968,0.676441838
46.976,0.684261975
46.984,0.688172043
46.992,0.692082111
47,0.694037146
47.008,0.693059629
47.016,0.691104594
47.024,0.688172043
47.032,0.68230694
47.04,0.676441838
47.048,0.667644184
47.056,0.65884653
47.064,0.648093842
47.072,0.636363636
47.08,0.624633431
47.088,0.612903226
47.096,0.599217986
47.104,0.58455523
47.112,0.568914956
47.12,0.553274682
47.128,0.538611926
47.136,0.523949169
47.144,0.51026393
47.152,0.498533724
47.16,0.488758553
47.168,0.480938416
47.176,0.474095797
47.184,0.468230694
47.192,0.464320626
47.2,0.458455523
47.208,0.453567937
47.216,0.446725318
47.224,0.439882698
47.232,0.433040078
47.24,0.426197458
47.248,0.419354839
47.256,0.413489736
47.264,0.406647116
47.272,0.400782014
47.28,0.393939394
47.288,0.389051808
47.296,0.384164223
47.304,0.379276637
47.312,0.373411535
47.32,0.367546432
47.328,0.361681329
47.336,0.35483871
47.344,0.348973607
47.352,0.342130987
47.36,0.336265885
47.368,0.329423265
47.376,0.324535679
47.384,0.318670577
47.392,0.314760508
47.4,0.311827957
47.408,0.307917889
47.416,0.30400782
47.424,0.299120235
47.432,0.295210166
47.44,0.291300098
47.448,0.288367546
47.456,0.286412512
47.464,0.283479961
47.472,0.281524927
47.48,0.278592375
47.488,0.276637341
47.496,0.274682307
47.504,0.275659824
47.512,0.279569892
47.52,0.288367546
47.528,0.30400782
47.536,0.327468231
47.544,0.357771261
47.552,0.393939394
47.56,0.432062561
47.568,0.470185728
47.576,0.506353861
47.584,0.538611926
47.592,0.566959922
47.6,0.587487781
47.608,0.604105572
47.616,0.620723363
47.624,0.634408602
47.632,0.646138807
47.64,0.653958944
47.648,0.659824047
47.656,0.662756598
47.664,0.663734115
47.672,0.661779081
47.68,0.657869013
47.688,0.653958944
47.696,0.648093842
47.704,0.641251222
47.712,0.633431085
47.72,0.624633431
47.728,0.61485826
47.736,0.603128055
47.744,0.590420332
47.752,0.576735093
47.76,0.562072336
47.768,0.54740958
47.776,0.531769306
47.784,0.516129032
47.792,0.501466276
47.8,0.487781036
47.808,0.477028348
47.816,0.468230694
47.824,0.45943304
47.832,0.45259042
47.84,0.445747801
47.848,0.439882698
47.856,0.434017595
47.864,0.42913001
47.872,0.423264907
47.88,0.418377322
47.888,0.413489736
47.896,0.408602151
47.904,0.402737048
47.912,0.397849462
47.92,0.392961877
47.928,0.388074291
47.936,0.381231672
47.944,0.375366569
47.952,0.368523949
47.96,0.362658847
47.968,0.356793744
47.976,0.351906158
47.984,0.347018573
47.992,0.342130987
48,0.336265885
48.008,0.330400782
48.016,0.324535679
48.024,0.319648094
48.032,0.316715543
48.04,0.312805474
48.048,0.308895406
48.056,0.306940371
48.064,0.30400782
48.072,0.302052786
48.08,0.299120235
48.088,0.296187683
48.096,0.292277615
48.104,0.287390029
48.112,0.282502444
48.12,0.278592375
48.128,0.275659824
48.136,0.274682307
48.144,0.272727273
48.152,0.271749756
48.16,0.270772239
48.168,0.269794721
48.176,0.268817204
48.184,0.26686217
48.192,0.264907136
48.2,0.262952102
48.208,0.260997067
48.216,0.259042033
48.224,0.257086999
48.232,0.257086999
48.24,0.258064516
48.248,0.258064516
48.256,0.259042033
48.264,0.259042033
48.272,0.259042033
48.28,0.258064516
48.288,0.257086999
48.296,0.256109482
48.304,0.254154448
48.312,0.252199413
48.32,0.251221896
48.328,0.249266862
48.336,0.249266862
48.344,0.250244379
48.352,0.250244379
48.36,0.251221896
48.368,0.250244379
48.376,0.250244379
48.384,0.249266862
48.392,0.247311828
48.4,0.245356794
48.408,0.24340176
48.416,0.240469208
48.424,0.238514174
48.432,0.23655914
48.44,0.23655914
48.448,0.237536657
48.456,0.237536657
48.464,0.237536657
48.472,0.238514174
48.48,0.239491691
48.488,0.240469208
48.496,0.241446725
48.504,0.242424242
48.512,0.24340176
48.52,0.244379277
48.528,0.245356794
48.536,0.245356794
48.544,0.245356794
48.552,0.246334311
48.56,0.245356794
48.568,0.24340176
48.576,0.24340176
48.584,0.246334311
48.592,0.254154448
48.6,0.269794721
48.608,0.293255132
48.616,0.325513196
48.624,0.365591398
48.632,0.411534702
48.64,0.45943304
48.648,0.501466276
48.656,0.538611926
48.664,0.57771261
48.672,0.61485826
48.68,0.649071359
48.688,0.678396872
48.696,0.703812317
48.704,0.725317693
48.712,0.741935484
48.72,0.754643206
48.728,0.76344086
48.736,0.769305963
48.744,0.772238514
48.752,0.773216031
48.76,0.771260997
48.768,0.766373412
48.776,0.760508309
48.784,0.752688172
48.792,0.743890518
48.8,0.73313783
48.808,0.721407625
48.816,0.708699902
48.824,0.695014663
48.832,0.680351906
48.84,0.666666667
48.848,0.65200391
48.856,0.638318671
48.864,0.625610948
48.872,0.611925709
48.88,0.596285435
48.888,0.583577713
48.896,0.572825024
48.904,0.56402737
48.912,0.556207234
48.92,0.549364614
48.928,0.542521994
48.936,0.536656891
48.944,0.530791789
48.952,0.524926686
48.96,0.518084066
48.968,0.512218964
48.976,0.505376344
48.984,0.498533724
48.992,0.491691105
49,0.484848485
49.008,0.477028348
49.016,0.470185728
49.024,0.463343109
49.032,0.456500489
49.04,0.450635386
49.048,0.444770283
49.056,0.438905181
49.064,0.433040078
49.072,0.428152493
49.08,0.423264907
49.088,0.418377322
49.096,0.412512219
49.104,0.406647116
49.112,0.399804497
49.12,0.393939394
49.128,0.388074291
49.136,0.382209189
49.144,0.377321603
49.152,0.372434018
49.16,0.3714565
49.168,0.373411535
49.176,0.379276637
49.184,0.389051808
49.192,0.405669599
49.2,0.428152493
49.208,0.454545455
49.216,0.483870968
49.224,0.513196481
49.232,0.541544477
49.24,0.566959922
49.248,0.589442815
49.256,0.60801564
49.264,0.623655914
49.272,0.635386119
49.28,0.643206256
49.288,0.648093842
49.296,0.65200391
49.304,0.654936461
49.312,0.654936461
49.32,0.653958944
49.328,0.65200391
49.336,0.649071359
49.344,0.64516129
49.352,0.640273705
49.36,0.634408602
49.368,0.626588465
49.376,0.616813294
49.384,0.607038123
49.392,0.596285435
49.4,0.583577713
49.408,0.568914956
49.416,0.553274682
49.424,0.537634409
49.432,0.522971652
49.44,0.508308895
49.448,0.493646139
49.456,0.480938416
49.464,0.470185728
49.472,0.460410557
49.48,0.451612903
49.488,0.445747801
49.496,0.440860215
49.504,0.436950147
49.512,0.433040078
49.52,0.42913001
49.528,0.426197458
49.536,0.42228739
49.544,0.418377322
49.552,0.414467253
49.56,0.409579668
49.568,0.405669599
49.576,0.400782014
49.584,0.395894428
49.592,0.39198436
49.6,0.388074291
49.608,0.384164223
49.616,0.379276637
49.624,0.375366569
49.632,0.370478983
49.64,0.365591398
49.648,0.360703812
49.656,0.355816227
49.664,0.350928641
49.672,0.345063539
49.68,0.340175953
49.688,0.335288368
49.696,0.331378299
49.704,0.328445748
49.712,0.323558162
49.72,0.319648094
49.728,0.315738025
49.736,0.312805474
49.744,0.308895406
49.752,0.305962854
49.76,0.303030303
49.768,0.300097752
49.776,0.296187683
49.784,0.292277615
49.792,0.289345064
49.8,0.287390029
49.808,0.285434995
49.816,0.284457478
49.824,0.283479961
49.832,0.281524927
49.84,0.28054741
49.848,0.279569892
49.856,0.277614858
49.864,0.275659824
49.872,0.272727273
49.88,0.270772239
49.888,0.269794721
49.896,0.267839687
49.904,0.26686217
49.912,0.26686217
49.92,0.26686217
49.928,0.265884653
49.936,0.264907136
49.944,0.263929619
49.952,0.262952102
49.96,0.261974585
49.968,0.260997067
49.976,0.26001955
49.984,0.26001955
49.992,0.260997067
50,0.260997067
50.008,0.261974585
50.016,0.262952102
50.024,0.262952102
50.032,0.262952102
50.04,0.261974585
50.048,0.261974585
50.056,0.260997067
50.064,0.260997067
50.072,0.260997067
50.08,0.26001955
50.088,0.259042033
50.096,0.258064516
50.104,0.256109482
50.112,0.256109482
50.12,0.259042033
50.128,0.264907136
50.136,0.277614858
50.144,0.298142717
50.152,0.326490714
50.16,0.362658847
50.168,0.404692082
50.176,0.448680352
50.184,0.491691105
50.192,0.53372434
50.2,0.57086999
50.208,0.603128055
50.216,0.630498534
50.224,0.653958944
50.232,0.669599218
50.24,0.681329423
50.248,0.691104594
50.256,0.698924731
50.264,0.703812317
50.272,0.706744868
50.28,0.706744868
50.288,0.703812317
50.296,0.699902248
50.304,0.693059629
50.312,0.684261975
50.32,0.674486804
50.328,0.663734115
50.336,0.65200391
50.344,0.639296188
50.352,0.624633431
50.36,0.609970674
50.368,0.594330401
50.376,0.579667644
50.384,0.565004888
50.392,0.552297165
50.4,0.54056696
50.408,0.530791789
50.416,0.522971652
50.424,0.517106549
50.432,0.513196481
50.44,0.509286413
50.448,0.507331378
50.456,0.504398827
50.464,0.502443793
50.472,0.500488759
50.48,0.498533724
50.488,0.49657869
50.496,0.493646139
50.504,0.48973607
50.512,0.485826002
50.52,0.480938416
50.528,0.475073314
50.536,0.469208211
50.544,0.464320626
50.552,0.458455523
50.56,0.451612903
50.568,0.444770283
50.576,0.438905181
50.584,0.434017595
50.592,0.431085044
50.6,0.430107527
50.608,0.432062561
50.616,0.437927664
50.624,0.446725318
50.632,0.45943304
50.64,0.474095797
50.648,0.487781036
50.656,0.500488759
50.664,0.515151515
50.672,0.528836755
50.68,0.541544477
50.688,0.551319648
50.696,0.558162268
50.704,0.562072336
50.712,0.563049853
50.72,0.563049853
50.728,0.560117302
50.736,0.555229717
50.744,0.549364614
50.752,0.542521994
50.76,0.53372434
50.768,0.521994135
50.776,0.509286413
50.784,0.494623656
50.792,0.478983382
50.8,0.464320626
50.808,0.449657869
50.816,0.43597263
50.824,0.424242424
50.832,0.413489736
50.84,0.403714565
50.848,0.395894428
50.856,0.390029326
50.864,0.384164223
50.872,0.380254154
50.88,0.377321603
50.888,0.375366569
50.896,0.374389052
50.904,0.375366569
50.912,0.376344086
50.92,0.376344086
50.928,0.377321603
50.936,0.377321603
50.944,0.376344086
50.952,0.377321603
50.96,0.380254154
50.968,0.381231672
50.976,0.380254154
50.984,0.379276637
50.992,0.377321603
51,0.374389052
51.008,0.3714565
51.016,0.368523949
51.024,0.365591398
51.032,0.362658847
51.04,0.359726295
51.048,0.356793744
51.056,0.352883675
51.064,0.350928641
51.072,0.34799609
51.08,0.344086022
51.088,0.340175953
51.096,0.335288368
51.104,0.331378299
51.112,0.327468231
51.12,0.323558162
51.128,0.320625611
51.136,0.31769306
51.144,0.313782991
51.152,0.31085044
51.16,0.307917889
51.168,0.305962854
51.176,0.30400782
51.184,0.302052786
51.192,0.300097752
51.2,0.299120235
51.208,0.298142717
51.216,0.2971652
51.224,0.2971652
51.232,0.296187683
51.24,0.295210166
51.248,0.294232649
51.256,0.294232649
51.264,0.294232649
51.272,0.294232649
51.28,0.295210166
51.288,0.295210166
51.296,0.295210166
51.304,0.294232649
51.312,0.293255132
51.32,0.292277615
51.328,0.291300098
51.336,0.291300098
51.344,0.292277615
51.352,0.292277615
51.36,0.293255132
51.368,0.293255132
51.376,0.293255132
51.384,0.294232649
51.392,0.293255132
51.4,0.292277615
51.408,0.291300098
51.416,0.290322581
51.424,0.288367546
51.432,0.287390029
51.44,0.286412512
51.448,0.285434995
51.456,0.283479961
51.464,0.282502444
51.472,0.282502444
51.48,0.282502444
51.488,0.283479961
51.496,0.284457478
51.504,0.284457478
51.512,0.284457478
51.52,0.283479961
51.528,0.284457478
51.536,0.288367546
51.544,0.2971652
51.552,0.312805474
51.56,0.337243402
51.568,0.3714565
51.576,0.412512219
51.584,0.451612903
51.592,0.491691105
51.6,0.536656891
51.608,0.582600196
51.616,0.627565982
51.624,0.669599218
51.632,0.706744868
51.64,0.73998045
51.648,0.769305963
51.656,0.793743891
51.664,0.812316716
51.672,0.826979472
51.68,0.835777126
51.688,0.839687195
51.696,0.839687195
51.704,0.836754643
51.712,0.831867058
51.72,0.825024438
51.728,0.816226784
51.736,0.805474096
51.744,0.793743891
51.752,0.781036168
51.76,0.766373412
51.768,0.750733138
51.776,0.734115347
51.784,0.717497556
51.792,0.699902248
51.8,0.683284457
51.808,0.668621701
51.816,0.653958944
51.824,0.640273705
51.832,0.6285435
51.84,0.618768328
51.848,0.608993157
51.856,0.601173021
51.864,0.594330401
51.872,0.586510264
51.88,0.579667644
51.888,0.572825024
51.896,0.565982405
51.904,0.560117302
51.912,0.553274682
51.92,0.545454545
51.928,0.538611926
51.936,0.530791789
51.944,0.521994135
51.952,0.514173998
51.96,0.505376344
51.968,0.497556207
51.976,0.48973607
51.984,0.481915934
51.992,0.475073314
52,0.468230694
52.008,0.462365591
52.016,0.457478006
52.024,0.451612903
52.032,0.445747801
52.04,0.439882698
52.048,0.434017595
