Sampling Rate : 100Hz,Duration : 3 Minutes
Time,PPG
0,-126359
0.01,-126359
0.02,-126362
0.03,-126367
0.04,-126358
0.05,-126360
0.06,-126360
0.07,-126360
0.08,-126360
0.09,-126360
0.1,-126375
0.11,-126368
0.12,-126377
0.13,-126386
0.14,-126382
0.15,-126397
0.16,-126402
0.17,-126410
0.18,-126407
0.19,-126415
0.2,-126417
0.21,-126421
0.22,-126425
0.23,-126429
0.24,-126428
0.25,-126433
0.26,-126437
0.27,-126444
0.28,-126448
0.29,-126456
0.3,-126451
0.31,-126450
0.32,-126465
0.33,-126467
0.34,-126483
0.35,-126475
0.36,-126479
0.37,-126474
0.38,-126476
0.39,-126487
0.4,-126487
0.41,-126496
0.42,-126496
0.43,-126494
0.44,-126499
0.45,-126506
0.46,-126503
0.47,-126512
0.48,-126522
0.49,-126522
0.5,-126531
0.51,-126529
0.52,-126525
0.53,-126528
0.54,-126529
0.55,-126540
0.56,-126543
0.57,-126544
0.58,-126543
0.59,-126549
0.6,-126556
0.61,-126550
0.62,-126560
0.63,-126567
0.64,-126579
0.65,-126587
0.66,-126593
0.67,-126591
0.68,-126586
0.69,-126579
0.7,-126559
0.71,-126532
0.72,-126494
0.73,-126452
0.74,-126414
0.75,-126366
0.76,-126333
0.77,-126304
0.78,-126273
0.79,-126257
0.8,-126240
0.81,-126235
0.82,-126204
0.83,-126210
0.84,-126190
0.85,-126186
0.86,-126180
0.87,-126171
0.88,-126168
0.89,-126167
0.9,-126164
0.91,-126162
0.92,-126169
0.93,-126167
0.94,-126178
0.95,-126189
0.96,-126190
0.97,-126201
0.98,-126214
0.99,-126219
1,-126223
1.01,-126233
1.02,-126244
1.03,-126251
1.04,-126267
1.05,-126275
1.06,-126282
1.07,-126289
1.08,-126304
1.09,-126318
1.1,-126319
1.11,-126327
1.12,-126337
1.13,-126347
1.14,-126353
1.15,-126369
1.16,-126378
1.17,-126386
1.18,-126395
1.19,-126390
1.2,-126399
1.21,-126407
1.22,-126399
1.23,-126404
1.24,-126410
1.25,-126417
1.26,-126412
1.27,-126421
1.28,-126410
1.29,-126417
1.3,-126410
1.31,-126412
1.32,-126416
1.33,-126408
1.34,-126405
1.35,-126403
1.36,-126407
1.37,-126398
1.38,-126403
1.39,-126409
1.4,-126401
1.41,-126403
1.42,-126403
1.43,-126397
1.44,-126405
1.45,-126401
1.46,-126399
1.47,-126406
1.48,-126403
1.49,-126407
1.5,-126415
1.51,-126417
1.52,-126422
1.53,-126422
1.54,-126434
1.55,-126429
1.56,-126433
1.57,-126429
1.58,-126438
1.59,-126450
1.6,-126448
1.61,-126459
1.62,-126461
1.63,-126461
1.64,-126470
1.65,-126474
1.66,-126478
1.67,-126482
1.68,-126475
1.69,-126486
1.7,-126497
1.71,-126495
1.72,-126499
1.73,-126504
1.74,-126509
1.75,-126510
1.76,-126516
1.77,-126517
1.78,-126517
1.79,-126528
1.8,-126531
1.81,-126528
1.82,-126534
1.83,-126533
1.84,-126549
1.85,-126538
1.86,-126550
1.87,-126557
1.88,-126553
1.89,-126558
1.9,-126556
1.91,-126560
1.92,-126563
1.93,-126566
1.94,-126572
1.95,-126568
1.96,-126581
1.97,-126580
1.98,-126587
1.99,-126590
2,-126603
2.01,-126599
2.02,-126612
2.03,-126608
2.04,-126616
2.05,-126620
2.06,-126610
2.07,-126586
2.08,-126561
2.09,-126525
2.1,-126492
2.11,-126452
2.12,-126406
2.13,-126372
2.14,-126330
2.15,-126313
2.16,-126298
2.17,-126286
2.18,-126267
2.19,-126253
2.2,-126245
2.21,-126240
2.22,-126230
2.23,-126225
2.24,-126227
2.25,-126217
2.26,-126205
2.27,-126211
2.28,-126208
2.29,-126205
2.3,-126216
2.31,-126217
2.32,-126234
2.33,-126230
2.34,-126239
2.35,-126248
2.36,-126247
2.37,-126270
2.38,-126273
2.39,-126280
2.4,-126282
2.41,-126299
2.42,-126310
2.43,-126315
2.44,-126329
2.45,-126339
2.46,-126348
2.47,-126349
2.48,-126364
2.49,-126364
2.5,-126382
2.51,-126397
2.52,-126400
2.53,-126418
2.54,-126418
2.55,-126426
2.56,-126427
2.57,-126429
2.58,-126441
2.59,-126441
2.6,-126452
2.61,-126459
2.62,-126452
2.63,-126454
2.64,-126455
2.65,-126458
2.66,-126468
2.67,-126455
2.68,-126460
2.69,-126452
2.7,-126458
2.71,-126451
2.72,-126459
2.73,-126444
2.74,-126450
2.75,-126451
2.76,-126453
2.77,-126450
2.78,-126441
2.79,-126443
2.8,-126445
2.81,-126452
2.82,-126448
2.83,-126447
2.84,-126449
2.85,-126450
2.86,-126451
2.87,-126456
2.88,-126456
2.89,-126465
2.9,-126470
2.91,-126472
2.92,-126475
2.93,-126470
2.94,-126472
2.95,-126471
2.96,-126490
2.97,-126495
2.98,-126498
2.99,-126503
3,-126506
3.01,-126501
3.02,-126509
3.03,-126511
3.04,-126512
3.05,-126515
3.06,-126523
3.07,-126522
3.08,-126546
3.09,-126541
3.1,-126545
3.11,-126552
3.12,-126547
3.13,-126555
3.14,-126555
3.15,-126563
3.16,-126561
3.17,-126578
3.18,-126563
3.19,-126575
3.2,-126573
3.21,-126585
3.22,-126588
3.23,-126593
3.24,-126591
3.25,-126591
3.26,-126593
3.27,-126595
3.28,-126600
3.29,-126605
3.3,-126609
3.31,-126618
3.32,-126616
3.33,-126615
3.34,-126620
3.35,-126623
3.36,-126625
3.37,-126626
3.38,-126621
3.39,-126603
3.4,-126570
3.41,-126544
3.42,-126510
3.43,-126476
3.44,-126439
3.45,-126403
3.46,-126384
3.47,-126352
3.48,-126342
3.49,-126324
3.5,-126302
3.51,-126298
3.52,-126294
3.53,-126276
3.54,-126260
3.55,-126244
3.56,-126239
3.57,-126239
3.58,-126236
3.59,-126237
3.6,-126239
3.61,-126225
3.62,-126229
3.63,-126238
3.64,-126237
3.65,-126244
3.66,-126260
3.67,-126265
3.68,-126267
3.69,-126266
3.7,-126276
3.71,-126289
3.72,-126298
3.73,-126313
3.74,-126321
3.75,-126324
3.76,-126337
3.77,-126347
3.78,-126361
3.79,-126364
3.8,-126381
3.81,-126391
3.82,-126404
3.83,-126412
3.84,-126429
3.85,-126430
3.86,-126442
3.87,-126451
3.88,-126456
3.89,-126461
3.9,-126461
3.91,-126462
3.92,-126472
3.93,-126470
3.94,-126472
3.95,-126481
3.96,-126474
3.97,-126483
3.98,-126478
3.99,-126472
4,-126472
4.01,-126476
4.02,-126477
4.03,-126476
4.04,-126473
4.05,-126475
4.06,-126472
4.07,-126464
4.08,-126460
4.09,-126469
4.1,-126453
4.11,-126450
4.12,-126463
4.13,-126460
4.14,-126470
4.15,-126469
4.16,-126476
4.17,-126477
4.18,-126485
4.19,-126475
4.2,-126474
4.21,-126486
4.22,-126484
4.23,-126489
4.24,-126486
4.25,-126500
4.26,-126505
4.27,-126503
4.28,-126506
4.29,-126513
4.3,-126519
4.31,-126517
4.32,-126517
4.33,-126523
4.34,-126525
4.35,-126529
4.36,-126539
4.37,-126547
4.38,-126545
4.39,-126547
4.4,-126558
4.41,-126553
4.42,-126560
4.43,-126558
4.44,-126564
4.45,-126579
4.46,-126570
4.47,-126577
4.48,-126577
4.49,-126577
4.5,-126592
4.51,-126588
4.52,-126590
4.53,-126590
4.54,-126598
4.55,-126594
4.56,-126604
4.57,-126611
4.58,-126607
4.59,-126618
4.6,-126608
4.61,-126614
4.62,-126615
4.63,-126625
4.64,-126625
4.65,-126628
4.66,-126627
4.67,-126601
4.68,-126577
4.69,-126568
4.7,-126530
4.71,-126498
4.72,-126457
4.73,-126422
4.74,-126404
4.75,-126373
4.76,-126349
4.77,-126324
4.78,-126324
4.79,-126318
4.8,-126305
4.81,-126288
4.82,-126281
4.83,-126264
4.84,-126256
4.85,-126252
4.86,-126241
4.87,-126237
4.88,-126230
4.89,-126245
4.9,-126244
4.91,-126231
4.92,-126236
4.93,-126244
4.94,-126247
4.95,-126252
4.96,-126250
4.97,-126262
4.98,-126268
4.99,-126272
5,-126291
5.01,-126289
5.02,-126312
5.03,-126324
5.04,-126324
5.05,-126326
5.06,-126331
5.07,-126351
5.08,-126353
5.09,-126365
5.1,-126364
5.11,-126385
5.12,-126392
5.13,-126395
5.14,-126403
5.15,-126419
5.16,-126428
5.17,-126426
5.18,-126434
5.19,-126445
5.2,-126446
5.21,-126462
5.22,-126469
5.23,-126455
5.24,-126470
5.25,-126471
5.26,-126460
5.27,-126460
5.28,-126475
5.29,-126471
5.3,-126464
5.31,-126461
5.32,-126460
5.33,-126446
5.34,-126455
5.35,-126456
5.36,-126445
5.37,-126448
5.38,-126446
5.39,-126457
5.4,-126451
5.41,-126453
5.42,-126451
5.43,-126450
5.44,-126447
5.45,-126447
5.46,-126454
5.47,-126450
5.48,-126458
5.49,-126453
5.5,-126462
5.51,-126462
5.52,-126465
5.53,-126470
5.54,-126470
5.55,-126475
5.56,-126474
5.57,-126471
5.58,-126490
5.59,-126477
5.6,-126491
5.61,-126495
5.62,-126493
5.63,-126499
5.64,-126496
5.65,-126510
5.66,-126511
5.67,-126513
5.68,-126516
5.69,-126527
5.7,-126530
5.71,-126525
5.72,-126528
5.73,-126534
5.74,-126540
5.75,-126540
5.76,-126545
5.77,-126545
5.78,-126548
5.79,-126543
5.8,-126558
5.81,-126557
5.82,-126553
5.83,-126560
5.84,-126572
5.85,-126577
5.86,-126576
5.87,-126575
5.88,-126582
5.89,-126583
5.9,-126592
5.91,-126588
5.92,-126591
5.93,-126598
5.94,-126594
5.95,-126607
5.96,-126603
5.97,-126610
5.98,-126594
5.99,-126581
6,-126581
6.01,-126557
6.02,-126526
6.03,-126501
6.04,-126461
6.05,-126424
6.06,-126396
6.07,-126362
6.08,-126343
6.09,-126314
6.1,-126303
6.11,-126293
6.12,-126290
6.13,-126273
6.14,-126261
6.15,-126259
6.16,-126253
6.17,-126236
6.18,-126231
6.19,-126216
6.2,-126219
6.21,-126225
6.22,-126229
6.23,-126230
6.24,-126230
6.25,-126229
6.26,-126236
6.27,-126243
6.28,-126245
6.29,-126256
6.3,-126245
6.31,-126260
6.32,-126272
6.33,-126280
6.34,-126294
6.35,-126310
6.36,-126308
6.37,-126318
6.38,-126324
6.39,-126341
6.4,-126344
6.41,-126358
6.42,-126364
6.43,-126372
6.44,-126384
6.45,-126393
6.46,-126400
6.47,-126418
6.48,-126416
6.49,-126424
6.5,-126430
6.51,-126432
6.52,-126436
6.53,-126445
6.54,-126445
6.55,-126450
6.56,-126446
6.57,-126459
6.58,-126459
6.59,-126459
6.6,-126458
6.61,-126451
6.62,-126448
6.63,-126455
6.64,-126453
6.65,-126440
6.66,-126436
6.67,-126435
6.68,-126440
6.69,-126441
6.7,-126443
6.71,-126436
6.72,-126436
6.73,-126435
6.74,-126425
6.75,-126441
6.76,-126441
6.77,-126437
6.78,-126436
6.79,-126431
6.8,-126434
6.81,-126443
6.82,-126440
6.83,-126445
6.84,-126443
6.85,-126447
6.86,-126447
6.87,-126454
6.88,-126455
6.89,-126460
6.9,-126460
6.91,-126462
6.92,-126467
6.93,-126471
6.94,-126477
6.95,-126483
6.96,-126482
6.97,-126490
6.98,-126500
6.99,-126496
7,-126505
7.01,-126501
7.02,-126507
7.03,-126512
7.04,-126513
7.05,-126521
7.06,-126523
7.07,-126519
7.08,-126531
7.09,-126541
7.1,-126548
7.11,-126533
7.12,-126545
7.13,-126550
7.14,-126547
7.15,-126554
7.16,-126558
7.17,-126557
7.18,-126561
7.19,-126569
7.2,-126572
7.21,-126579
7.22,-126579
7.23,-126580
7.24,-126584
7.25,-126588
7.26,-126589
7.27,-126588
7.28,-126587
7.29,-126590
7.3,-126593
7.31,-126576
7.32,-126558
7.33,-126530
7.34,-126510
7.35,-126483
7.36,-126440
7.37,-126400
7.38,-126380
7.39,-126343
7.4,-126332
7.41,-126303
7.42,-126290
7.43,-126270
7.44,-126268
7.45,-126254
7.46,-126254
7.47,-126249
7.48,-126241
7.49,-126238
7.5,-126226
7.51,-126225
7.52,-126219
7.53,-126220
7.54,-126208
7.55,-126215
7.56,-126219
7.57,-126227
7.58,-126223
7.59,-126230
7.6,-126231
7.61,-126248
7.62,-126251
7.63,-126251
7.64,-126257
7.65,-126285
7.66,-126276
7.67,-126288
7.68,-126297
7.69,-126297
7.7,-126305
7.71,-126314
7.72,-126314
7.73,-126324
7.74,-126344
7.75,-126357
7.76,-126360
7.77,-126374
7.78,-126380
7.79,-126385
7.8,-126399
7.81,-126411
7.82,-126411
7.83,-126422
7.84,-126418
7.85,-126427
7.86,-126437
7.87,-126447
7.88,-126445
7.89,-126451
7.9,-126438
7.91,-126443
7.92,-126443
7.93,-126436
7.94,-126441
7.95,-126431
7.96,-126436
7.97,-126423
7.98,-126424
7.99,-126424
8,-126425
8.01,-126427
8.02,-126421
8.03,-126418
8.04,-126435
8.05,-126424
8.06,-126427
8.07,-126420
8.08,-126421
8.09,-126427
8.1,-126428
8.11,-126434
8.12,-126436
8.13,-126432
8.14,-126432
8.15,-126442
8.16,-126447
8.17,-126447
8.18,-126440
8.19,-126448
8.2,-126453
8.21,-126460
8.22,-126459
8.23,-126466
8.24,-126456
8.25,-126466
8.26,-126474
8.27,-126470
8.28,-126473
8.29,-126480
8.3,-126492
8.31,-126485
8.32,-126482
8.33,-126492
8.34,-126497
8.35,-126500
8.36,-126505
8.37,-126512
8.38,-126512
8.39,-126515
8.4,-126514
8.41,-126515
8.42,-126525
8.43,-126530
8.44,-126537
8.45,-126528
8.46,-126533
8.47,-126546
8.48,-126540
8.49,-126541
8.5,-126553
8.51,-126550
8.52,-126552
8.53,-126566
8.54,-126566
8.55,-126570
8.56,-126571
8.57,-126575
8.58,-126574
8.59,-126581
8.6,-126570
8.61,-126566
8.62,-126540
8.63,-126523
8.64,-126489
8.65,-126467
8.66,-126467
8.67,-126418
8.68,-126418
8.69,-126388
8.7,-126354
8.71,-126328
8.72,-126304
8.73,-126304
8.74,-126289
8.75,-126268
8.76,-126260
8.77,-126251
8.78,-126236
8.79,-126227
8.8,-126220
8.81,-126200
8.82,-126206
8.83,-126200
8.84,-126195
8.85,-126201
8.86,-126202
8.87,-126201
8.88,-126200
8.89,-126204
8.9,-126208
8.91,-126215
8.92,-126230
8.93,-126222
8.94,-126240
8.95,-126242
8.96,-126250
8.97,-126265
8.98,-126275
8.99,-126280
9,-126287
9.01,-126296
9.02,-126304
9.03,-126313
9.04,-126331
9.05,-126341
9.06,-126352
9.07,-126353
9.08,-126369
9.09,-126373
9.1,-126378
9.11,-126385
9.12,-126395
9.13,-126406
9.14,-126405
9.15,-126405
9.16,-126413
9.17,-126406
9.18,-126410
9.19,-126421
9.2,-126422
9.21,-126416
9.22,-126424
9.23,-126414
9.24,-126409
9.25,-126411
9.26,-126401
9.27,-126408
9.28,-126414
9.29,-126406
9.3,-126400
9.31,-126398
9.32,-126390
9.33,-126398
9.34,-126398
9.35,-126395
9.36,-126402
9.37,-126395
9.38,-126389
9.39,-126398
9.4,-126405
9.41,-126408
9.42,-126400
9.43,-126420
9.44,-126410
9.45,-126410
9.46,-126409
9.47,-126408
9.48,-126422
9.49,-126429
9.5,-126431
9.51,-126426
9.52,-126432
9.53,-126436
9.54,-126438
9.55,-126446
9.56,-126444
9.57,-126457
9.58,-126461
9.59,-126463
9.6,-126463
9.61,-126467
9.62,-126463
9.63,-126472
9.64,-126479
9.65,-126479
9.66,-126479
9.67,-126484
9.68,-126476
9.69,-126484
9.7,-126490
9.71,-126493
9.72,-126493
9.73,-126491
9.74,-126485
9.75,-126502
9.76,-126504
9.77,-126507
9.78,-126512
9.79,-126519
9.8,-126524
9.81,-126518
9.82,-126516
9.83,-126526
9.84,-126529
9.85,-126531
9.86,-126539
9.87,-126544
9.88,-126543
9.89,-126543
9.9,-126543
9.91,-126547
9.92,-126547
9.93,-126550
9.94,-126541
9.95,-126542
9.96,-126513
9.97,-126483
9.98,-126461
9.99,-126419
10,-126391
10.01,-126348
10.02,-126311
10.03,-126288
10.04,-126262
10.05,-126250
10.06,-126231
10.07,-126210
10.08,-126190
10.09,-126175
10.1,-126170
10.11,-126157
10.12,-126159
10.13,-126151
10.14,-126153
10.15,-126150
10.16,-126150
10.17,-126150
10.18,-126150
10.19,-126150
10.2,-126155
10.21,-126150
10.22,-126166
10.23,-126177
10.24,-126182
10.25,-126186
10.26,-126182
10.27,-126198
10.28,-126205
10.29,-126205
10.3,-126224
10.31,-126232
10.32,-126236
10.33,-126257
10.34,-126256
10.35,-126277
10.36,-126291
10.37,-126307
10.38,-126306
10.39,-126319
10.4,-126323
10.41,-126333
10.42,-126337
10.43,-126337
10.44,-126337
10.45,-126343
10.46,-126343
10.47,-126353
10.48,-126353
10.49,-126356
10.5,-126355
10.51,-126352
10.52,-126358
10.53,-126358
10.54,-126366
10.55,-126357
10.56,-126355
10.57,-126357
10.58,-126354
10.59,-126352
10.6,-126346
10.61,-126352
10.62,-126341
10.63,-126344
10.64,-126339
10.65,-126344
10.66,-126342
10.67,-126342
10.68,-126340
10.69,-126346
10.7,-126344
10.71,-126339
10.72,-126352
10.73,-126340
10.74,-126349
10.75,-126350
10.76,-126364
10.77,-126368
10.78,-126363
10.79,-126358
10.8,-126364
10.81,-126364
10.82,-126364
10.83,-126364
10.84,-126375
10.85,-126381
10.86,-126379
10.87,-126388
10.88,-126393
10.89,-126395
10.9,-126395
10.91,-126395
10.92,-126407
10.93,-126412
10.94,-126409
10.95,-126413
10.96,-126414
10.97,-126420
10.98,-126422
10.99,-126427
11,-126420
11.01,-126431
11.02,-126433
11.03,-126438
11.04,-126445
11.05,-126444
11.06,-126452
11.07,-126447
11.08,-126461
11.09,-126466
11.1,-126475
11.11,-126473
11.12,-126483
11.13,-126493
11.14,-126493
11.15,-126498
11.16,-126498
11.17,-126493
11.18,-126499
11.19,-126477
11.2,-126471
11.21,-126452
11.22,-126430
11.23,-126396
11.24,-126366
11.25,-126327
11.26,-126287
11.27,-126255
11.28,-126234
11.29,-126222
11.3,-126204
11.31,-126180
11.32,-126157
11.33,-126139
11.34,-126131
11.35,-126124
11.36,-126114
11.37,-126114
11.38,-126114
11.39,-126112
11.4,-126093
11.41,-126099
11.42,-126114
11.43,-126114
11.44,-126125
11.45,-126130
11.46,-126137
11.47,-126136
11.48,-126152
11.49,-126153
11.5,-126164
11.51,-126167
11.52,-126184
11.53,-126181
11.54,-126185
11.55,-126216
11.56,-126227
11.57,-126222
11.58,-126236
11.59,-126249
11.6,-126258
11.61,-126258
11.62,-126258
11.63,-126267
11.64,-126271
11.65,-126276
11.66,-126281
11.67,-126294
11.68,-126299
11.69,-126308
11.7,-126309
11.71,-126307
11.72,-126317
11.73,-126312
11.74,-126315
11.75,-126306
11.76,-126313
11.77,-126307
11.78,-126303
11.79,-126302
11.8,-126295
11.81,-126295
11.82,-126307
11.83,-126302
11.84,-126299
11.85,-126299
11.86,-126300
11.87,-126298
11.88,-126303
11.89,-126305
11.9,-126290
11.91,-126311
11.92,-126311
11.93,-126311
11.94,-126303
11.95,-126310
11.96,-126306
11.97,-126311
11.98,-126326
11.99,-126320
12,-126327
12.01,-126327
12.02,-126324
12.03,-126326
12.04,-126346
12.05,-126347
12.06,-126358
12.07,-126355
12.08,-126355
12.09,-126366
12.1,-126376
12.11,-126365
12.12,-126366
12.13,-126388
12.14,-126388
12.15,-126395
12.16,-126397
12.17,-126392
12.18,-126406
12.19,-126411
12.2,-126411
12.21,-126412
12.22,-126430
12.23,-126423
12.24,-126418
12.25,-126440
12.26,-126429
12.27,-126435
12.28,-126440
12.29,-126432
12.3,-126441
12.31,-126441
12.32,-126441
12.33,-126443
12.34,-126445
12.35,-126452
12.36,-126453
12.37,-126442
12.38,-126425
12.39,-126394
12.4,-126379
12.41,-126342
12.42,-126310
12.43,-126272
12.44,-126241
12.45,-126219
12.46,-126199
12.47,-126177
12.48,-126160
12.49,-126130
12.5,-126125
12.51,-126112
12.52,-126105
12.53,-126096
12.54,-126083
12.55,-126083
12.56,-126083
12.57,-126077
12.58,-126077
12.59,-126082
12.6,-126069
12.61,-126078
12.62,-126070
12.63,-126083
12.64,-126094
12.65,-126098
12.66,-126100
12.67,-126109
12.68,-126121
12.69,-126124
12.7,-126131
12.71,-126135
12.72,-126154
12.73,-126147
12.74,-126171
12.75,-126187
12.76,-126197
12.77,-126205
12.78,-126217
12.79,-126226
12.8,-126233
12.81,-126250
12.82,-126250
12.83,-126250
12.84,-126252
12.85,-126264
12.86,-126274
12.87,-126277
12.88,-126283
12.89,-126278
12.9,-126272
12.91,-126286
12.92,-126285
12.93,-126288
12.94,-126280
12.95,-126285
12.96,-126282
12.97,-126277
12.98,-126276
12.99,-126279
13,-126273
13.01,-126275
13.02,-126275
13.03,-126274
13.04,-126283
13.05,-126283
13.06,-126283
13.07,-126276
13.08,-126273
13.09,-126274
13.1,-126269
13.11,-126282
13.12,-126279
13.13,-126279
13.14,-126288
13.15,-126290
13.16,-126292
13.17,-126296
13.18,-126295
13.19,-126303
13.2,-126308
13.21,-126313
13.22,-126317
13.23,-126328
13.24,-126318
13.25,-126340
13.26,-126328
13.27,-126328
13.28,-126344
13.29,-126344
13.3,-126347
13.31,-126356
13.32,-126371
13.33,-126380
13.34,-126384
13.35,-126378
13.36,-126386
13.37,-126383
13.38,-126399
13.39,-126398
13.4,-126395
13.41,-126388
13.42,-126407
13.43,-126405
13.44,-126408
13.45,-126406
13.46,-126424
13.47,-126428
13.48,-126414
13.49,-126425
13.5,-126426
13.51,-126426
13.52,-126426
13.53,-126426
13.54,-126426
13.55,-126396
13.56,-126389
13.57,-126362
13.58,-126331
13.59,-126296
13.6,-126270
13.61,-126243
13.62,-126217
13.63,-126196
13.64,-126182
13.65,-126155
13.66,-126133
13.67,-126129
13.68,-126115
13.69,-126098
13.7,-126066
13.71,-126062
13.72,-126053
13.73,-126042
13.74,-126037
13.75,-126036
13.76,-126036
13.77,-126036
13.78,-126039
13.79,-126040
13.8,-126057
13.81,-126075
13.82,-126082
13.83,-126091
13.84,-126096
13.85,-126098
13.86,-126106
13.87,-126119
13.88,-126131
13.89,-126137
13.9,-126147
13.91,-126156
13.92,-126163
13.93,-126174
13.94,-126195
13.95,-126194
13.96,-126204
13.97,-126216
13.98,-126224
13.99,-126227
14,-126227
14.01,-126226
14.02,-126227
14.03,-126244
14.04,-126248
14.05,-126243
14.06,-126252
14.07,-126250
14.08,-126244
14.09,-126254
14.1,-126251
14.11,-126251
14.12,-126251
14.13,-126250
14.14,-126246
14.15,-126249
14.16,-126243
14.17,-126239
14.18,-126240
14.19,-126243
14.2,-126242
14.21,-126246
14.22,-126250
14.23,-126250
14.24,-126250
14.25,-126253
14.26,-126254
14.27,-126259
14.28,-126254
14.29,-126260
14.3,-126272
14.31,-126273
14.32,-126271
14.33,-126274
14.34,-126283
14.35,-126274
14.36,-126288
14.37,-126292
14.38,-126297
14.39,-126293
14.4,-126305
14.41,-126306
14.42,-126325
14.43,-126317
14.44,-126337
14.45,-126334
14.46,-126332
14.47,-126332
14.48,-126335
14.49,-126340
14.5,-126348
14.51,-126352
14.52,-126344
14.53,-126367
14.54,-126373
14.55,-126367
14.56,-126367
14.57,-126379
14.58,-126382
14.59,-126388
14.6,-126385
14.61,-126393
14.62,-126396
14.63,-126395
14.64,-126397
14.65,-126390
14.66,-126405
14.67,-126400
14.68,-126413
14.69,-126403
14.7,-126403
14.71,-126403
14.72,-126383
14.73,-126378
14.74,-126348
14.75,-126330
14.76,-126235
14.77,-126216
14.78,-126189
14.79,-126161
14.8,-126144
14.81,-126130
14.82,-126100
14.83,-126089
14.84,-126073
14.85,-126056
14.86,-126041
14.87,-126025
14.88,-126010
14.89,-126006
14.9,-126005
14.91,-125996
14.92,-126003
14.93,-125995
14.94,-125995
14.95,-125995
14.96,-126008
14.97,-126008
14.98,-126016
14.99,-126005
15,-126012
15.01,-126030
15.02,-126044
15.03,-126044
15.04,-126055
15.05,-126070
15.06,-126085
15.07,-126078
15.08,-126096
15.09,-126101
15.1,-126107
15.11,-126120
15.12,-126122
15.13,-126146
15.14,-126165
15.15,-126163
15.16,-126180
15.17,-126178
15.18,-126180
15.19,-126184
15.2,-126187
15.21,-126187
15.22,-126187
15.23,-126187
15.24,-126191
15.25,-126196
15.26,-126205
15.27,-126204
15.28,-126199
15.29,-126201
15.3,-126202
15.31,-126202
15.32,-126189
15.33,-126189
15.34,-126183
15.35,-126191
15.36,-126187
15.37,-126198
15.38,-126191
15.39,-126185
15.4,-126205
15.41,-126200
15.42,-126208
15.43,-126202
15.44,-126202
15.45,-126202
15.46,-126211
15.47,-126214
15.48,-126222
15.49,-126227
15.5,-126239
15.51,-126230
15.52,-126235
15.53,-126253
15.54,-126237
15.55,-126252
15.56,-126256
15.57,-126265
15.58,-126253
15.59,-126268
15.6,-126267
15.61,-126270
15.62,-126285
15.63,-126289
15.64,-126301
15.65,-126292
15.66,-126307
15.67,-126305
15.68,-126315
15.69,-126315
15.7,-126325
15.71,-126336
15.72,-126339
15.73,-126335
15.74,-126330
15.75,-126339
15.76,-126344
15.77,-126347
15.78,-126346
15.79,-126356
15.8,-126355
15.81,-126356
15.82,-126366
15.83,-126366
15.84,-126367
15.85,-126368
15.86,-126362
15.87,-126352
15.88,-126351
15.89,-126330
15.9,-126310
15.91,-126281
15.92,-126186
15.93,-126186
15.94,-126186
15.95,-126165
15.96,-126132
15.97,-126126
15.98,-126099
15.99,-126082
16,-126065
16.01,-126035
16.02,-126031
16.03,-126015
16.04,-126005
16.05,-125987
16.06,-125988
16.07,-125975
16.08,-125974
16.09,-125980
16.1,-125961
16.11,-125973
16.12,-125973
16.13,-125983
16.14,-125983
16.15,-125982
16.16,-125997
16.17,-125997
16.18,-125997
16.19,-126016
16.2,-126032
16.21,-126036
16.22,-126060
16.23,-126061
16.24,-126064
16.25,-126071
16.26,-126087
16.27,-126097
16.28,-126112
16.29,-126109
16.3,-126123
16.31,-126123
16.32,-126127
16.33,-126134
16.34,-126144
16.35,-126145
16.36,-126162
16.37,-126161
16.38,-126164
16.39,-126164
16.4,-126164
16.41,-126164
16.42,-126170
16.43,-126169
16.44,-126169
16.45,-126168
16.46,-126169
16.47,-126165
16.48,-126172
16.49,-126180
16.5,-126166
16.51,-126167
16.52,-126168
16.53,-126175
16.54,-126165
16.55,-126170
16.56,-126178
16.57,-126176
16.58,-126180
16.59,-126189
16.6,-126180
16.61,-126180
16.62,-126184
16.63,-126179
16.64,-126179
16.65,-126184
16.66,-126190
16.67,-126208
16.68,-126216
16.69,-126223
16.7,-126218
16.71,-126234
16.72,-126231
16.73,-126239
16.74,-126242
16.75,-126251
16.76,-126246
16.77,-126255
16.78,-126259
16.79,-126265
16.8,-126269
16.81,-126280
16.82,-126275
16.83,-126286
16.84,-126288
16.85,-126298
16.86,-126285
16.87,-126285
16.88,-126285
16.89,-126300
16.9,-126297
16.91,-126306
16.92,-126330
16.93,-126316
16.94,-126325
16.95,-126325
16.96,-126324
16.97,-126338
16.98,-126340
16.99,-126339
17,-126345
17.01,-126343
17.02,-126352
17.03,-126346
17.04,-126357
17.05,-126352
17.06,-126350
17.07,-126330
17.08,-126311
17.09,-126286
17.1,-126263
17.11,-126263
17.12,-126233
17.13,-126200
17.14,-126171
17.15,-126139
17.16,-126091
17.17,-126061
17.18,-126061
17.19,-126049
17.2,-126031
17.21,-126023
17.22,-126002
17.23,-125987
17.24,-125980
17.25,-125969
17.26,-125962
17.27,-125957
17.28,-125959
17.29,-125955
17.3,-125957
17.31,-125975
17.32,-125963
17.33,-125971
17.34,-125979
17.35,-125979
17.36,-125987
17.37,-125987
17.38,-125987
17.39,-125988
17.4,-125982
17.41,-126002
17.42,-126002
17.43,-126011
17.44,-126032
17.45,-126032
17.46,-126050
17.47,-126058
17.48,-126060
17.49,-126069
17.5,-126082
17.51,-126086
17.52,-126100
17.53,-126108
17.54,-126115
17.55,-126129
17.56,-126152
17.57,-126155
17.58,-126147
17.59,-126157
17.6,-126158
17.61,-126158
17.62,-126158
17.63,-126156
17.64,-126151
17.65,-126159
17.66,-126166
17.67,-126163
17.68,-126159
17.69,-126155
17.7,-126153
17.71,-126151
17.72,-126156
17.73,-126160
17.74,-126166
17.75,-126167
17.76,-126161
17.77,-126167
17.78,-126154
17.79,-126170
17.8,-126172
17.81,-126174
17.82,-126181
17.83,-126186
17.84,-126191
17.85,-126191
17.86,-126191
17.87,-126211
17.88,-126213
17.89,-126213
17.9,-126223
17.91,-126228
17.92,-126225
17.93,-126233
17.94,-126243
17.95,-126238
17.96,-126236
17.97,-126247
17.98,-126251
17.99,-126251
18,-126257
18.01,-126268
18.02,-126275
18.03,-126277
18.04,-126276
18.05,-126285
18.06,-126284
18.07,-126287
18.08,-126287
18.09,-126287
18.1,-126286
18.11,-126296
18.12,-126302
18.13,-126320
18.14,-126319
18.15,-126315
18.16,-126326
18.17,-126332
18.18,-126331
18.19,-126342
18.2,-126333
18.21,-126328
18.22,-126335
18.23,-126342
18.24,-126344
18.25,-126356
18.26,-126349
18.27,-126358
18.28,-126361
18.29,-126354
18.3,-126350
18.31,-126338
18.32,-126338
18.33,-126325
18.34,-126252
18.35,-126221
18.36,-126178
18.37,-126152
18.38,-126128
18.39,-126102
18.4,-126102
18.41,-126084
18.42,-126067
18.43,-126056
18.44,-126053
18.45,-126017
18.46,-126006
18.47,-126001
18.48,-125992
18.49,-125984
18.5,-125984
18.51,-125969
18.52,-125955
18.53,-125954
18.54,-125960
18.55,-125960
18.56,-125960
18.57,-125978
18.58,-125970
18.59,-125980
18.6,-125994
18.61,-125991
18.62,-126019
18.63,-126030
18.64,-126016
18.65,-126045
18.66,-126049
18.67,-126062
18.68,-126064
18.69,-126080
18.7,-126087
18.71,-126099
18.72,-126110
18.73,-126117
18.74,-126127
18.75,-126126
18.76,-126146
18.77,-126141
18.78,-126154
18.79,-126154
18.8,-126154
18.81,-126155
18.82,-126153
18.83,-126164
18.84,-126165
18.85,-126168
18.86,-126180
18.87,-126176
18.88,-126175
18.89,-126180
18.9,-126173
18.91,-126175
18.92,-126175
18.93,-126173
18.94,-126177
18.95,-126173
18.96,-126172
18.97,-126177
18.98,-126180
18.99,-126186
19,-126185
19.01,-126184
19.02,-126190
19.03,-126190
19.04,-126190
19.05,-126192
19.06,-126197
19.07,-126203
19.08,-126210
19.09,-126217
19.1,-126213
19.11,-126226
19.12,-126225
19.13,-126230
19.14,-126239
19.15,-126237
19.16,-126233
19.17,-126243
19.18,-126241
19.19,-126249
19.2,-126264
19.21,-126265
19.22,-126280
19.23,-126273
19.24,-126280
19.25,-126284
19.26,-126284
19.27,-126284
19.28,-126292
19.29,-126301
19.3,-126298
19.31,-126306
19.32,-126303
19.33,-126308
19.34,-126321
19.35,-126328
19.36,-126325
19.37,-126325
19.38,-126329
19.39,-126331
19.4,-126331
19.41,-126349
19.42,-126344
19.43,-126339
19.44,-126337
19.45,-126354
19.46,-126352
19.47,-126358
19.48,-126361
19.49,-126357
19.5,-126357
19.51,-126363
19.52,-126373
19.53,-126373
19.54,-126370
19.55,-126370
19.56,-126351
19.57,-126325
19.58,-126304
19.59,-126304
19.6,-126304
19.61,-126283
19.62,-126252
19.63,-126211
19.64,-126179
19.65,-126161
19.66,-126136
19.67,-126104
19.68,-126096
19.69,-126072
19.7,-126058
19.71,-126037
19.72,-126026
19.73,-126026
19.74,-126026
19.75,-126014
19.76,-126005
19.77,-125992
19.78,-125987
19.79,-125981
19.8,-125998
19.81,-125997
19.82,-126007
19.83,-126015
19.84,-126022
19.85,-126018
19.86,-126038
19.87,-126036
19.88,-126050
19.89,-126066
19.9,-126067
19.91,-126082
19.92,-126079
19.93,-126099
19.94,-126100
19.95,-126114
19.96,-126119
19.97,-126119
19.98,-126136
19.99,-126137
20,-126146
20.01,-126159
20.02,-126167
20.03,-126181
20.04,-126176
20.05,-126182
20.06,-126197
20.07,-126181
20.08,-126192
20.09,-126192
20.1,-126193
20.11,-126188
20.12,-126198
20.13,-126200
20.14,-126191
20.15,-126200
20.16,-126193
20.17,-126201
20.18,-126194
20.19,-126197
20.2,-126197
20.21,-126197
20.22,-126200
20.23,-126198
20.24,-126199
20.25,-126192
20.26,-126207
20.27,-126208
20.28,-126214
20.29,-126211
20.3,-126209
20.31,-126220
20.32,-126219
20.33,-126218
20.34,-126236
20.35,-126237
20.36,-126230
20.37,-126236
20.38,-126242
20.39,-126251
20.4,-126265
20.41,-126256
20.42,-126266
20.43,-126268
20.44,-126268
20.45,-126271
20.46,-126274
20.47,-126277
20.48,-126288
20.49,-126299
20.5,-126304
20.51,-126309
20.52,-126306
20.53,-126314
20.54,-126323
20.55,-126322
20.56,-126320
20.57,-126327
20.58,-126342
20.59,-126330
20.6,-126349
20.61,-126347
20.62,-126345
20.63,-126349
20.64,-126348
20.65,-126351
20.66,-126351
20.67,-126351
20.68,-126351
20.69,-126351
20.7,-126351
20.71,-126368
20.72,-126364
20.73,-126371
20.74,-126368
20.75,-126372
20.76,-126384
20.77,-126385
20.78,-126391
20.79,-126391
20.8,-126394
20.81,-126394
20.82,-126387
20.83,-126373
20.84,-126365
20.85,-126348
20.86,-126314
20.87,-126244
20.88,-126208
20.89,-126184
20.9,-126155
20.91,-126155
20.92,-126138
20.93,-126123
20.94,-126123
20.95,-126107
20.96,-126092
20.97,-126022
20.98,-126021
20.99,-126019
21,-126018
21.01,-126017
21.02,-126000
21.03,-126012
21.04,-126021
21.05,-126011
21.06,-126023
21.07,-126025
21.08,-126038
21.09,-126050
21.1,-126053
21.11,-126071
21.12,-126071
21.13,-126080
21.14,-126094
21.15,-126094
21.16,-126110
21.17,-126110
21.18,-126110
21.19,-126115
21.2,-126123
21.21,-126128
21.22,-126141
21.23,-126164
21.24,-126174
21.25,-126182
21.26,-126186
21.27,-126199
21.28,-126202
21.29,-126205
21.3,-126216
21.31,-126230
21.32,-126227
21.33,-126227
21.34,-126228
21.35,-126236
21.36,-126238
21.37,-126237
21.38,-126232
21.39,-126243
21.4,-126236
21.41,-126239
21.42,-126239
21.43,-126238
21.44,-126235
21.45,-126240
21.46,-126243
21.47,-126244
21.48,-126238
21.49,-126234
21.5,-126241
21.51,-126248
21.52,-126248
21.53,-126253
21.54,-126260
21.55,-126258
21.56,-126263
21.57,-126264
21.58,-126266
21.59,-126274
21.6,-126277
21.61,-126272
21.62,-126290
21.63,-126285
21.64,-126283
21.65,-126283
21.66,-126298
21.67,-126310
21.68,-126318
21.69,-126319
21.7,-126329
21.71,-126336
21.72,-126326
21.73,-126331
21.74,-126337
21.75,-126349
21.76,-126354
21.77,-126353
21.78,-126353
21.79,-126353
21.8,-126355
21.81,-126362
21.82,-126357
21.83,-126366
21.84,-126377
21.85,-126379
21.86,-126374
21.87,-126381
21.88,-126381
21.89,-126381
21.9,-126388
21.91,-126388
21.92,-126392
21.93,-126405
21.94,-126411
21.95,-126409
21.96,-126420
21.97,-126413
21.98,-126411
21.99,-126428
22,-126424
22.01,-126435
22.02,-126429
22.03,-126439
22.04,-126442
22.05,-126440
22.06,-126423
22.07,-126410
22.08,-126384
22.09,-126350
22.1,-126325
22.11,-126297
22.12,-126297
22.13,-126256
22.14,-126143
22.15,-126140
22.16,-126140
22.17,-126125
22.18,-126114
22.19,-126100
22.2,-126091
22.21,-126065
22.22,-126070
22.23,-126060
22.24,-126061
22.25,-126060
22.26,-126064
22.27,-126054
22.28,-126054
22.29,-126057
22.3,-126071
22.31,-126069
22.32,-126084
22.33,-126087
22.34,-126098
22.35,-126102
22.36,-126102
22.37,-126103
22.38,-126154
22.39,-126157
22.4,-126175
22.41,-126182
22.42,-126190
22.43,-126204
22.44,-126216
22.45,-126233
22.46,-126235
22.47,-126253
22.48,-126258
22.49,-126258
22.5,-126261
22.51,-126274
22.52,-126277
22.53,-126286
22.54,-126293
22.55,-126299
22.56,-126299
22.57,-126291
22.58,-126302
22.59,-126302
22.6,-126302
22.61,-126304
22.62,-126298
22.63,-126289
22.64,-126293
22.65,-126284
22.66,-126297
22.67,-126290
22.68,-126289
22.69,-126290
22.7,-126284
22.71,-126294
22.72,-126297
22.73,-126301
22.74,-126288
22.75,-126295
22.76,-126300
22.77,-126306
22.78,-126305
22.79,-126309
22.8,-126310
22.81,-126318
22.82,-126324
22.83,-126324
22.84,-126315
22.85,-126323
22.86,-126332
22.87,-126341
22.88,-126341
22.89,-126341
22.9,-126350
22.91,-126358
22.92,-126356
22.93,-126364
22.94,-126366
22.95,-126373
22.96,-126377
22.97,-126381
22.98,-126391
22.99,-126395
23,-126401
23.01,-126399
23.02,-126407
23.03,-126416
23.04,-126412
23.05,-126421
23.06,-126421
23.07,-126421
23.08,-126423
23.09,-126430
23.1,-126428
23.11,-126432
23.12,-126449
23.13,-126463
23.14,-126441
23.15,-126458
23.16,-126465
23.17,-126465
23.18,-126473
23.19,-126469
23.2,-126474
23.21,-126473
23.22,-126486
23.23,-126473
23.24,-126477
23.25,-126462
23.26,-126447
23.27,-126423
23.28,-126394
23.29,-126362
23.3,-126362
23.31,-126334
23.32,-126299
23.33,-126275
23.34,-126250
23.35,-126196
23.36,-126172
23.37,-126163
23.38,-126144
23.39,-126139
23.4,-126121
23.41,-126104
23.42,-126093
23.43,-126087
23.44,-126087
23.45,-126079
23.46,-126078
23.47,-126082
23.48,-126085
23.49,-126089
23.5,-126095
23.51,-126098
23.52,-126113
23.53,-126113
23.54,-126113
23.55,-126117
23.56,-126115
23.57,-126137
23.58,-126132
23.59,-126158
23.6,-126177
23.61,-126173
23.62,-126196
23.63,-126205
23.64,-126224
23.65,-126232
23.66,-126240
23.67,-126242
23.68,-126253
23.69,-126269
23.7,-126274
23.71,-126290
23.72,-126293
23.73,-126299
23.74,-126302
23.75,-126317
23.76,-126310
23.77,-126310
23.78,-126310
23.79,-126315
23.8,-126317
23.81,-126320
23.82,-126317
23.83,-126317
23.84,-126316
23.85,-126315
23.86,-126310
23.87,-126305
23.88,-126313
23.89,-126311
23.9,-126307
23.91,-126304
23.92,-126303
23.93,-126307
23.94,-126310
23.95,-126314
23.96,-126311
23.97,-126311
23.98,-126315
23.99,-126320
24,-126328
24.01,-126328
24.02,-126328
24.03,-126325
24.04,-126323
24.05,-126325
24.06,-126324
24.07,-126339
24.08,-126341
24.09,-126353
24.1,-126355
24.11,-126355
24.12,-126367
24.13,-126361
24.14,-126372
24.15,-126370
24.16,-126378
24.17,-126382
24.18,-126395
24.19,-126397
24.2,-126404
24.21,-126403
24.22,-126410
24.23,-126420
24.24,-126423
24.25,-126423
24.26,-126423
24.27,-126425
24.28,-126433
24.29,-126436
24.3,-126442
24.31,-126447
24.32,-126442
24.33,-126455
24.34,-126465
24.35,-126466
24.36,-126462
24.37,-126470
24.38,-126473
24.39,-126470
24.4,-126480
24.41,-126484
24.42,-126486
24.43,-126471
24.44,-126464
24.45,-126443
24.46,-126423
24.47,-126400
24.48,-126400
24.49,-126400
24.5,-126358
24.51,-126332
24.52,-126304
24.53,-126226
24.54,-126212
24.55,-126195
24.56,-126179
24.57,-126171
24.58,-126147
24.59,-126134
24.6,-126125
24.61,-126116
24.62,-126112
24.63,-126108
24.64,-126100
24.65,-126103
24.66,-126092
24.67,-126099
24.68,-126101
24.69,-126104
24.7,-126107
24.71,-126107
24.72,-126107
24.73,-126113
24.74,-126118
24.75,-126124
24.76,-126136
24.77,-126172
24.78,-126185
24.79,-126197
24.8,-126205
24.81,-126214
24.82,-126219
24.83,-126232
24.84,-126236
24.85,-126243
24.86,-126269
24.87,-126271
24.88,-126270
24.89,-126291
24.9,-126295
24.91,-126302
24.92,-126302
24.93,-126313
24.94,-126312
24.95,-126312
24.96,-126313
24.97,-126323
24.98,-126321
24.99,-126314
25,-126312
25.01,-126322
25.02,-126314
25.03,-126315
25.04,-126320
25.05,-126316
25.06,-126316
25.07,-126316
25.08,-126319
25.09,-126314
25.1,-126325
25.11,-126311
25.12,-126316
25.13,-126310
25.14,-126314
25.15,-126319
25.16,-126317
25.17,-126324
25.18,-126324
25.19,-126324
25.2,-126328
25.21,-126335
25.22,-126326
25.23,-126334
25.24,-126332
25.25,-126342
25.26,-126352
25.27,-126362
25.28,-126366
25.29,-126371
25.3,-126376
25.31,-126379
25.32,-126378
25.33,-126383
25.34,-126383
25.35,-126389
25.36,-126389
25.37,-126407
25.38,-126405
25.39,-126407
25.4,-126411
25.41,-126417
25.42,-126417
25.43,-126420
25.44,-126434
25.45,-126433
25.46,-126441
25.47,-126436
25.48,-126437
25.49,-126442
25.5,-126449
25.51,-126457
25.52,-126457
25.53,-126449
25.54,-126453
25.55,-126469
25.56,-126470
25.57,-126461
25.58,-126461
25.59,-126477
25.6,-126477
25.61,-126484
25.62,-126477
25.63,-126478
25.64,-126471
25.65,-126456
25.66,-126456
25.67,-126456
25.68,-126447
25.69,-126413
25.7,-126382
25.71,-126350
25.72,-126260
25.73,-126253
25.74,-126230
25.75,-126213
25.76,-126198
25.77,-126194
25.78,-126173
25.79,-126156
25.8,-126153
25.81,-126134
25.82,-126124
25.83,-126106
25.84,-126109
25.85,-126111
25.86,-126110
25.87,-126118
25.88,-126114
25.89,-126114
25.9,-126114
25.91,-126114
25.92,-126122
25.93,-126132
25.94,-126140
25.95,-126159
25.96,-126164
25.97,-126190
25.98,-126192
25.99,-126211
26,-126217
26.01,-126236
26.02,-126231
26.03,-126244
26.04,-126263
26.05,-126279
26.06,-126275
26.07,-126291
26.08,-126300
26.09,-126310
26.1,-126316
26.11,-126322
26.12,-126331
26.13,-126338
26.14,-126338
26.15,-126338
26.16,-126338
26.17,-126338
26.18,-126333
26.19,-126332
26.2,-126321
26.21,-126333
26.22,-126329
26.23,-126342
26.24,-126328
26.25,-126327
26.26,-126339
26.27,-126325
26.28,-126331
26.29,-126328
26.3,-126322
26.31,-126331
26.32,-126330
26.33,-126331
26.34,-126335
26.35,-126325
26.36,-126328
26.37,-126328
26.38,-126328
26.39,-126335
26.4,-126333
26.41,-126341
26.42,-126368
26.43,-126360
26.44,-126362
26.45,-126368
26.46,-126377
26.47,-126383
26.48,-126380
26.49,-126390
26.5,-126384
26.51,-126403
26.52,-126400
26.53,-126400
26.54,-126401
26.55,-126412
26.56,-126416
26.57,-126416
26.58,-126428
26.59,-126430
26.6,-126437
26.61,-126437
26.62,-126433
26.63,-126435
26.64,-126449
26.65,-126445
26.66,-126458
26.67,-126467
26.68,-126458
26.69,-126464
26.7,-126461
26.71,-126466
26.72,-126472
26.73,-126482
26.74,-126472
26.75,-126484
26.76,-126479
26.77,-126484
26.78,-126486
26.79,-126496
26.8,-126495
26.81,-126492
26.82,-126494
26.83,-126472
26.84,-126472
26.85,-126470
26.86,-126440
26.87,-126405
26.88,-126381
26.89,-126286
26.9,-126259
26.91,-126239
26.92,-126225
26.93,-126225
26.94,-126216
26.95,-126205
26.96,-126187
26.97,-126172
26.98,-126169
26.99,-126161
27,-126148
27.01,-126146
27.02,-126147
27.03,-126137
27.04,-126134
27.05,-126136
27.06,-126149
27.07,-126142
27.08,-126142
27.09,-126152
27.1,-126152
27.11,-126156
27.12,-126166
27.13,-126187
27.14,-126203
27.15,-126208
27.16,-126223
27.17,-126224
27.18,-126237
27.19,-126243
27.2,-126253
27.21,-126271
27.22,-126278
27.23,-126286
27.24,-126286
27.25,-126286
27.26,-126293
27.27,-126311
27.28,-126319
27.29,-126331
27.3,-126335
27.31,-126335
27.32,-126335
27.33,-126344
27.34,-126343
27.35,-126352
27.36,-126349
27.37,-126376
27.38,-126362
27.39,-126349
27.4,-126356
27.41,-126359
27.42,-126357
27.43,-126353
27.44,-126357
27.45,-126354
27.46,-126359
27.47,-126343
27.48,-126336
27.49,-126335
27.5,-126339
27.51,-126339
27.52,-126343
27.53,-126344
27.54,-126347
27.55,-126347
27.56,-126351
27.57,-126352
27.58,-126349
27.59,-126351
27.6,-126362
27.61,-126371
27.62,-126375
27.63,-126376
27.64,-126382
27.65,-126383
27.66,-126391
27.67,-126393
27.68,-126389
27.69,-126396
27.7,-126407
27.71,-126403
27.72,-126410
27.73,-126417
27.74,-126426
27.75,-126430
27.76,-126437
27.77,-126443
27.78,-126443
27.79,-126443
27.8,-126439
27.81,-126453
27.82,-126453
27.83,-126457
27.84,-126446
27.85,-126468
27.86,-126473
27.87,-126478
27.88,-126469
27.89,-126470
27.9,-126479
27.91,-126485
27.92,-126489
27.93,-126488
27.94,-126501
27.95,-126492
27.96,-126509
27.97,-126514
27.98,-126502
27.99,-126510
28,-126505
28.01,-126500
28.02,-126500
28.03,-126488
28.04,-126464
28.05,-126433
28.06,-126397
28.07,-126294
28.08,-126270
28.09,-126255
28.1,-126232
28.11,-126223
28.12,-126208
28.13,-126190
28.14,-126176
28.15,-126169
28.16,-126163
28.17,-126152
28.18,-126146
28.19,-126132
28.2,-126133
28.21,-126135
28.22,-126135
28.23,-126130
28.24,-126127
28.25,-126127
28.26,-126127
28.27,-126132
28.28,-126132
28.29,-126140
28.3,-126148
28.31,-126151
28.32,-126171
28.33,-126183
28.34,-126191
28.35,-126191
28.36,-126191
28.37,-126198
28.38,-126213
28.39,-126221
28.4,-126232
28.41,-126245
28.42,-126250
28.43,-126265
28.44,-126265
28.45,-126278
28.46,-126301
28.47,-126321
28.48,-126318
28.49,-126323
28.5,-126329
28.51,-126335
28.52,-126335
28.53,-126335
28.54,-126334
28.55,-126335
28.56,-126334
28.57,-126345
28.58,-126337
28.59,-126342
28.6,-126341
28.61,-126331
28.62,-126334
28.63,-126339
28.64,-126331
28.65,-126334
28.66,-126334
28.67,-126333
28.68,-126330
28.69,-126334
28.7,-126329
28.71,-126346
28.72,-126339
28.73,-126347
28.74,-126351
28.75,-126344
28.76,-126344
28.77,-126346
28.78,-126355
28.79,-126361
28.8,-126358
28.81,-126367
28.82,-126366
28.83,-126379
28.84,-126382
28.85,-126383
28.86,-126378
28.87,-126383
28.88,-126390
28.89,-126393
28.9,-126396
28.91,-126406
28.92,-126402
28.93,-126412
28.94,-126413
28.95,-126423
28.96,-126420
28.97,-126422
28.98,-126432
28.99,-126432
29,-126432
29.01,-126436
29.02,-126434
29.03,-126449
29.04,-126439
29.05,-126450
29.06,-126455
29.07,-126459
29.08,-126462
29.09,-126458
29.1,-126469
29.11,-126474
29.12,-126470
29.13,-126473
29.14,-126485
29.15,-126470
29.16,-126484
29.17,-126494
29.18,-126480
29.19,-126468
29.2,-126457
29.21,-126433
29.22,-126404
29.23,-126404
29.24,-126377
29.25,-126274
29.26,-126246
29.27,-126230
29.28,-126210
29.29,-126197
29.3,-126181
29.31,-126172
29.32,-126154
29.33,-126140
29.34,-126137
29.35,-126116
29.36,-126110
29.37,-126106
29.38,-126102
29.39,-126110
29.4,-126098
29.41,-126097
29.42,-126096
29.43,-126096
29.44,-126096
29.45,-126106
29.46,-126106
29.47,-126106
29.48,-126116
29.49,-126120
29.5,-126121
29.51,-126138
29.52,-126161
29.53,-126175
29.54,-126179
29.55,-126193
29.56,-126199
29.57,-126207
29.58,-126216
29.59,-126228
29.6,-126239
29.61,-126251
29.62,-126247
29.63,-126263
29.64,-126273
29.65,-126282
29.66,-126281
29.67,-126290
29.68,-126290
29.69,-126299
29.7,-126299
29.71,-126295
29.72,-126292
29.73,-126292
29.74,-126286
29.75,-126285
29.76,-126290
29.77,-126297
29.78,-126292
29.79,-126293
29.8,-126285
29.81,-126290
29.82,-126282
29.83,-126283
29.84,-126284
29.85,-126284
29.86,-126290
29.87,-126293
29.88,-126294
29.89,-126298
29.9,-126293
29.91,-126292
29.92,-126302
29.93,-126302
29.94,-126302
29.95,-126293
29.96,-126300
29.97,-126308
29.98,-126317
29.99,-126315
30,-126326
30.01,-126327
30.02,-126328
30.03,-126337
30.04,-126338
30.05,-126344
30.06,-126342
30.07,-126349
30.08,-126349
30.09,-126361
30.1,-126347
30.11,-126365
30.12,-126371
30.13,-126370
30.14,-126383
30.15,-126384
30.16,-126387
30.17,-126387
30.18,-126386
30.19,-126386
30.2,-126390
30.21,-126397
30.22,-126405
30.23,-126414
30.24,-126414
30.25,-126408
30.26,-126419
30.27,-126430
30.28,-126428
30.29,-126430
30.3,-126431
30.31,-126431
30.32,-126433
30.33,-126438
30.34,-126441
30.35,-126441
30.36,-126421
30.37,-126424
30.38,-126400
30.39,-126375
30.4,-126375
30.41,-126375
30.42,-126353
30.43,-126311
30.44,-126279
30.45,-126246
30.46,-126175
30.47,-126147
30.48,-126140
30.49,-126127
30.5,-126113
30.51,-126098
30.52,-126090
30.53,-126090
30.54,-126090
30.55,-126074
30.56,-126074
30.57,-126064
30.58,-126055
30.59,-126059
30.6,-126048
30.61,-126051
30.62,-126060
30.63,-126060
30.64,-126060
30.65,-126060
30.66,-126056
30.67,-126068
30.68,-126062
30.69,-126083
30.7,-126107
30.71,-126113
30.72,-126127
30.73,-126138
30.74,-126148
30.75,-126160
30.76,-126160
30.77,-126168
30.78,-126178
30.79,-126186
30.8,-126187
30.81,-126202
30.82,-126205
30.83,-126230
30.84,-126219
30.85,-126227
30.86,-126227
30.87,-126231
30.88,-126231
30.89,-126233
30.9,-126232
30.91,-126238
30.92,-126236
30.93,-126225
30.94,-126232
30.95,-126226
30.96,-126234
30.97,-126224
30.98,-126223
30.99,-126232
31,-126225
31.01,-126242
31.02,-126234
31.03,-126245
31.04,-126246
31.05,-126244
31.06,-126239
31.07,-126242
31.08,-126245
31.09,-126238
31.1,-126255
31.11,-126255
31.12,-126255
31.13,-126253
31.14,-126255
31.15,-126254
31.16,-126260
31.17,-126262
31.18,-126270
31.19,-126272
31.2,-126279
31.21,-126285
31.22,-126291
31.23,-126291
31.24,-126294
31.25,-126291
31.26,-126310
31.27,-126313
31.28,-126302
31.29,-126318
31.3,-126317
31.31,-126320
31.32,-126329
31.33,-126335
31.34,-126332
31.35,-126332
31.36,-126339
31.37,-126348
31.38,-126342
31.39,-126349
31.4,-126358
31.41,-126365
31.42,-126370
31.43,-126371
31.44,-126373
31.45,-126377
31.46,-126382
31.47,-126379
31.48,-126386
31.49,-126388
31.5,-126402
31.51,-126394
31.52,-126407
31.53,-126394
31.54,-126400
31.55,-126393
31.56,-126378
31.57,-126350
31.58,-126350
31.59,-126350
31.6,-126326
31.61,-126291
31.62,-126262
31.63,-126262
31.64,-126230
31.65,-126145
31.66,-126139
31.67,-126113
31.68,-126113
31.69,-126104
31.7,-126081
31.71,-126077
31.72,-126058
31.73,-126042
31.74,-126033
31.75,-126031
31.76,-126015
31.77,-126020
31.78,-126016
31.79,-126007
31.8,-126007
31.81,-126007
31.82,-126013
31.83,-126009
31.84,-126008
31.85,-126017
31.86,-126027
31.87,-126018
31.88,-126056
31.89,-126080
31.9,-126084
31.91,-126085
31.92,-126103
31.93,-126105
31.94,-126113
31.95,-126125
31.96,-126139
31.97,-126148
31.98,-126151
31.99,-126163
32,-126168
32.01,-126176
32.02,-126182
32.03,-126190
32.04,-126190
32.05,-126194
32.06,-126198
32.07,-126192
32.08,-126197
32.09,-126196
32.1,-126193
32.11,-126186
32.12,-126198
32.13,-126183
32.14,-126193
32.15,-126192
32.16,-126192
32.17,-126192
32.18,-126203
32.19,-126202
32.2,-126199
32.21,-126197
32.22,-126196
32.23,-126199
32.24,-126199
32.25,-126206
32.26,-126203
32.27,-126220
32.28,-126220
32.29,-126220
32.3,-126223
32.31,-126222
32.32,-126218
32.33,-126230
32.34,-126228
32.35,-126232
32.36,-126240
32.37,-126246
32.38,-126259
32.39,-126258
32.4,-126258
32.41,-126264
32.42,-126262
32.43,-126274
32.44,-126273
32.45,-126287
32.46,-126288
32.47,-126292
32.48,-126295
32.49,-126302
32.5,-126295
32.51,-126307
32.52,-126307
32.53,-126308
32.54,-126315
32.55,-126318
32.56,-126320
32.57,-126330
32.58,-126330
32.59,-126337
32.6,-126341
32.61,-126341
32.62,-126348
32.63,-126348
32.64,-126355
32.65,-126355
32.66,-126360
32.67,-126364
32.68,-126367
32.69,-126376
32.7,-126371
32.71,-126371
32.72,-126377
32.73,-126376
32.74,-126384
32.75,-126384
32.76,-126384
32.77,-126370
32.78,-126362
32.79,-126337
32.8,-126327
32.81,-126302
32.82,-126268
32.83,-126171
32.84,-126156
32.85,-126142
32.86,-126119
32.87,-126119
32.88,-126100
32.89,-126082
32.9,-126057
32.91,-126043
32.92,-126027
32.93,-126016
32.94,-125999
32.95,-125989
32.96,-125983
32.97,-125976
32.98,-125976
32.99,-125976
33,-125976
33.01,-125981
33.02,-125978
33.03,-125991
33.04,-126028
33.05,-126038
33.06,-126045
33.07,-126053
33.08,-126064
33.09,-126078
33.1,-126072
33.11,-126088
33.12,-126101
33.13,-126103
33.14,-126119
33.15,-126128
33.16,-126142
33.17,-126150
33.18,-126167
33.19,-126166
33.2,-126177
33.21,-126180
33.22,-126189
33.23,-126189
33.24,-126190
33.25,-126201
33.26,-126192
33.27,-126205
33.28,-126205
33.29,-126200
33.3,-126205
33.31,-126206
33.32,-126193
33.33,-126202
33.34,-126202
33.35,-126207
33.36,-126202
33.37,-126201
33.38,-126215
33.39,-126206
33.4,-126200
33.41,-126209
33.42,-126209
33.43,-126204
33.44,-126212
33.45,-126212
33.46,-126212
33.47,-126215
33.48,-126214
33.49,-126211
33.5,-126231
33.51,-126226
33.52,-126227
33.53,-126227
33.54,-126235
33.55,-126244
33.56,-126251
33.57,-126249
33.58,-126255
33.59,-126262
33.6,-126264
33.61,-126265
33.62,-126272
33.63,-126283
33.64,-126284
33.65,-126291
33.66,-126293
33.67,-126304
33.68,-126298
33.69,-126298
33.7,-126298
33.71,-126316
33.72,-126315
33.73,-126318
33.74,-126331
33.75,-126339
33.76,-126341
33.77,-126339
33.78,-126342
33.79,-126343
33.8,-126352
33.81,-126352
33.82,-126356
33.83,-126361
33.84,-126367
33.85,-126363
33.86,-126371
33.87,-126376
33.88,-126385
33.89,-126382
33.9,-126389
33.91,-126377
33.92,-126377
33.93,-126377
33.94,-126383
33.95,-126367
33.96,-126368
33.97,-126344
33.98,-126322
33.99,-126208
34,-126186
34.01,-126171
34.02,-126150
34.03,-126129
34.04,-126111
34.05,-126111
34.06,-126086
34.07,-126065
34.08,-126055
34.09,-126037
34.1,-126035
34.11,-126005
34.12,-126001
34.13,-125983
34.14,-125978
34.15,-125989
34.16,-125981
34.17,-125981
34.18,-125977
34.19,-125982
34.2,-125990
34.21,-125977
34.22,-126003
34.23,-126008
34.24,-126016
34.25,-126026
34.26,-126040
34.27,-126044
34.28,-126058
34.29,-126068
34.3,-126081
34.31,-126092
34.32,-126100
34.33,-126105
34.34,-126131
34.35,-126142
34.36,-126148
34.37,-126158
34.38,-126166
34.39,-126172
34.4,-126172
34.41,-126172
34.42,-126185
34.43,-126181
34.44,-126187
34.45,-126189
34.46,-126193
34.47,-126203
34.48,-126190
34.49,-126193
34.5,-126198
34.51,-126194
34.52,-126203
34.53,-126198
34.54,-126191
34.55,-126193
34.56,-126191
34.57,-126189
34.58,-126183
34.59,-126194
34.6,-126190
34.61,-126192
34.62,-126197
34.63,-126200
34.64,-126200
34.65,-126192
34.66,-126209
34.67,-126204
34.68,-126209
34.69,-126217
34.7,-126221
34.71,-126221
34.72,-126233
34.73,-126233
34.74,-126232
34.75,-126233
34.76,-126240
34.77,-126242
34.78,-126245
34.79,-126253
34.8,-126264
34.81,-126265
34.82,-126271
34.83,-126262
34.84,-126271
34.85,-126286
34.86,-126290
34.87,-126290
34.88,-126290
34.89,-126291
34.9,-126287
34.91,-126287
34.92,-126299
34.93,-126298
34.94,-126304
34.95,-126313
34.96,-126317
34.97,-126311
34.98,-126321
34.99,-126318
35,-126327
35.01,-126332
35.02,-126330
35.03,-126335
35.04,-126342
35.05,-126346
35.06,-126341
35.07,-126348
35.08,-126336
35.09,-126328
35.1,-126328
35.11,-126328
35.12,-126309
35.13,-126291
35.14,-126275
35.15,-126251
35.16,-126129
35.17,-126112
35.18,-126088
35.19,-126083
35.2,-126064
35.21,-126053
35.22,-126040
35.23,-126016
35.24,-126019
35.25,-126007
35.26,-125989
35.27,-125980
35.28,-125978
35.29,-125975
35.3,-125982
35.31,-125985
35.32,-125982
35.33,-125983
35.34,-125983
35.35,-125983
35.36,-125981
35.37,-125992
35.38,-125993
35.39,-126003
35.4,-126027
35.41,-126042
35.42,-126057
35.43,-126062
35.44,-126074
35.45,-126090
35.46,-126104
35.47,-126108
35.48,-126117
35.49,-126133
35.5,-126135
35.51,-126149
35.52,-126165
35.53,-126174
35.54,-126189
35.55,-126184
35.56,-126201
35.57,-126203
35.58,-126203
35.59,-126203
35.6,-126207
35.61,-126207
35.62,-126202
35.63,-126203
35.64,-126195
35.65,-126209
35.66,-126204
35.67,-126200
35.68,-126197
35.69,-126196
35.7,-126200
35.71,-126194
35.72,-126188
35.73,-126197
35.74,-126199
35.75,-126194
35.76,-126193
35.77,-126196
35.78,-126197
35.79,-126194
35.8,-126203
35.81,-126198
35.82,-126202
35.83,-126202
35.84,-126201
35.85,-126212
35.86,-126217
35.87,-126218
35.88,-126232
35.89,-126235
35.9,-126239
35.91,-126245
35.92,-126250
35.93,-126249
35.94,-126256
35.95,-126259
35.96,-126266
35.97,-126275
35.98,-126271
35.99,-126271
36,-126270
36.01,-126270
36.02,-126282
36.03,-126285
36.04,-126291
36.05,-126303
36.06,-126296
36.07,-126296
36.08,-126301
36.09,-126301
36.1,-126301
36.11,-126308
36.12,-126311
36.13,-126322
36.14,-126325
36.15,-126331
36.16,-126327
36.17,-126341
36.18,-126342
36.19,-126342
36.2,-126346
36.21,-126350
36.22,-126355
36.23,-126357
36.24,-126357
36.25,-126371
36.26,-126369
36.27,-126355
36.28,-126344
36.29,-126324
36.3,-126305
36.31,-126282
36.32,-126250
36.33,-126122
36.34,-126122
36.35,-126113
36.36,-126106
36.37,-126106
36.38,-126077
36.39,-126065
36.4,-126058
36.41,-126060
36.42,-126054
36.43,-126032
36.44,-126031
36.45,-126025
36.46,-126026
36.47,-126020
36.48,-126018
36.49,-126022
36.5,-126015
36.51,-126026
36.52,-126030
36.53,-126037
36.54,-126039
36.55,-126050
36.56,-126063
36.57,-126100
36.58,-126100
36.59,-126108
36.6,-126108
36.61,-126112
36.62,-126128
36.63,-126132
36.64,-126142
36.65,-126159
36.66,-126174
36.67,-126185
36.68,-126191
36.69,-126196
36.7,-126211
36.71,-126216
36.72,-126212
36.73,-126222
36.74,-126232
36.75,-126224
36.76,-126233
36.77,-126240
36.78,-126237
36.79,-126240
36.8,-126236
36.81,-126232
36.82,-126226
36.83,-126230
36.84,-126230
36.85,-126230
36.86,-126228
36.87,-126231
36.88,-126232
36.89,-126225
36.9,-126222
36.91,-126231
36.92,-126227
36.93,-126224
36.94,-126219
36.95,-126227
36.96,-126221
36.97,-126227
36.98,-126235
36.99,-126226
37,-126243
37.01,-126245
37.02,-126249
37.03,-126255
37.04,-126256
37.05,-126271
37.06,-126270
37.07,-126275
37.08,-126275
37.09,-126281
37.1,-126290
37.11,-126290
37.12,-126290
37.13,-126282
37.14,-126288
37.15,-126290
37.16,-126299
37.17,-126305
37.18,-126306
37.19,-126315
37.2,-126311
37.21,-126321
37.22,-126323
37.23,-126323
37.24,-126334
37.25,-126326
37.26,-126338
37.27,-126346
37.28,-126348
37.29,-126371
37.3,-126369
37.31,-126369
37.32,-126369
37.33,-126380
37.34,-126392
37.35,-126390
37.36,-126399
37.37,-126399
37.38,-126409
37.39,-126409
37.4,-126424
37.41,-126433
37.42,-126433
37.43,-126431
37.44,-126441
37.45,-126435
37.46,-126442
37.47,-126425
37.48,-126412
37.49,-126363
37.5,-126328
37.51,-126292
37.52,-126255
37.53,-126231
37.54,-126202
37.55,-126202
37.56,-126180
37.57,-126180
37.58,-126138
37.59,-126140
37.6,-126126
37.61,-126120
37.62,-126099
37.63,-126095
37.64,-126083
37.65,-126092
37.66,-126077
37.67,-126077
37.68,-126057
37.69,-126074
37.7,-126073
37.71,-126085
37.72,-126084
37.73,-126090
37.74,-126095
37.75,-126102
37.76,-126118
37.77,-126110
37.78,-126131
37.79,-126131
37.8,-126135
37.81,-126154
37.82,-126175
37.83,-126199
37.84,-126213
37.85,-126229
37.86,-126223
37.87,-126244
37.88,-126255
37.89,-126263
37.9,-126261
37.91,-126273
37.92,-126272
37.93,-126280
37.94,-126280
37.95,-126286
37.96,-126294
37.97,-126290
37.98,-126297
37.99,-126293
38,-126288
38.01,-126293
38.02,-126293
38.03,-126293
38.04,-126294
38.05,-126290
38.06,-126286
38.07,-126284
38.08,-126272
38.09,-126292
38.1,-126291
38.11,-126285
38.12,-126291
38.13,-126283
38.14,-126285
38.15,-126297
38.16,-126297
38.17,-126297
38.18,-126296
38.19,-126292
38.2,-126292
38.21,-126295
38.22,-126301
38.23,-126314
38.24,-126322
38.25,-126322
38.26,-126322
38.27,-126318
38.28,-126324
38.29,-126330
38.3,-126336
38.31,-126323
38.32,-126331
38.33,-126341
38.34,-126357
38.35,-126353
38.36,-126359
38.37,-126358
38.38,-126365
38.39,-126377
38.4,-126377
38.41,-126388
38.42,-126381
38.43,-126394
38.44,-126402
38.45,-126400
38.46,-126406
38.47,-126412
38.48,-126419
38.49,-126419
38.5,-126411
38.51,-126419
38.52,-126429
38.53,-126430
38.54,-126455
38.55,-126453
38.56,-126468
38.57,-126460
38.58,-126463
38.59,-126463
38.6,-126473
38.61,-126483
38.62,-126483
38.63,-126482
38.64,-126502
38.65,-126504
38.66,-126514
38.67,-126515
38.68,-126512
38.69,-126488
38.7,-126474
38.71,-126449
38.72,-126449
38.73,-126449
38.74,-126417
38.75,-126375
38.76,-126345
38.77,-126308
38.78,-126217
38.79,-126193
38.8,-126180
38.81,-126166
38.82,-126149
38.83,-126142
38.84,-126142
38.85,-126122
38.86,-126118
38.87,-126126
38.88,-126111
38.89,-126108
38.9,-126107
38.91,-126114
38.92,-126117
38.93,-126120
38.94,-126128
38.95,-126124
38.96,-126124
38.97,-126124
38.98,-126135
38.99,-126141
39,-126149
39.01,-126152
39.02,-126178
39.03,-126196
39.04,-126205
39.05,-126212
39.06,-126221
39.07,-126236
39.08,-126235
39.09,-126260
39.1,-126270
39.11,-126280
39.12,-126291
39.13,-126290
39.14,-126314
39.15,-126322
39.16,-126324
39.17,-126336
39.18,-126328
39.19,-126338
39.2,-126338
39.21,-126338
39.22,-126348
39.23,-126337
39.24,-126332
39.25,-126334
39.26,-126340
39.27,-126340
39.28,-126334
39.29,-126334
39.3,-126334
39.31,-126342
39.32,-126339
39.33,-126331
39.34,-126336
39.35,-126338
39.36,-126334
39.37,-126337
39.38,-126334
39.39,-126328
39.4,-126342
39.41,-126340
39.42,-126340
39.43,-126340
39.44,-126340
39.45,-126344
39.46,-126347
39.47,-126360
39.48,-126349
39.49,-126360
39.5,-126368
39.51,-126367
39.52,-126381
39.53,-126381
39.54,-126392
39.55,-126400
39.56,-126399
39.57,-126410
39.58,-126410
39.59,-126418
39.6,-126421
39.61,-126417
39.62,-126428
39.63,-126441
39.64,-126437
39.65,-126452
39.66,-126450
39.67,-126450
39.68,-126452
39.69,-126458
39.7,-126471
39.71,-126461
39.72,-126477
39.73,-126490
39.74,-126488
39.75,-126496
39.76,-126499
39.77,-126497
39.78,-126508
39.79,-126517
39.8,-126516
39.81,-126513
39.82,-126520
39.83,-126525
39.84,-126539
39.85,-126537
39.86,-126544
39.87,-126544
39.88,-126568
39.89,-126570
39.9,-126570
39.91,-126581
39.92,-126583
39.93,-126561
39.94,-126546
39.95,-126462
39.96,-126431
39.97,-126382
39.98,-126353
39.99,-126314
40,-126289
40.01,-126250
40.02,-126250
40.03,-126231
40.04,-126220
40.05,-126204
40.06,-126190
40.07,-126182
40.08,-126164
40.09,-126149
40.1,-126145
40.11,-126140
40.12,-126140
40.13,-126139
40.14,-126139
40.15,-126139
40.16,-126137
40.17,-126137
40.18,-126135
40.19,-126140
40.2,-126140
40.21,-126157
40.22,-126177
40.23,-126179
40.24,-126182
40.25,-126188
40.26,-126201
40.27,-126211
40.28,-126213
40.29,-126227
40.3,-126239
40.31,-126249
40.32,-126257
40.33,-126278
40.34,-126301
40.35,-126306
40.36,-126311
40.37,-126323
40.38,-126328
40.39,-126328
40.4,-126342
40.41,-126342
40.42,-126342
40.43,-126343
40.44,-126347
40.45,-126354
40.46,-126363
40.47,-126359
40.48,-126365
40.49,-126371
40.5,-126372
40.51,-126367
40.52,-126375
40.53,-126371
40.54,-126371
40.55,-126366
40.56,-126360
40.57,-126369
40.58,-126363
40.59,-126363
40.6,-126365
40.61,-126368
40.62,-126369
40.63,-126362
40.64,-126365
40.65,-126365
40.66,-126365
40.67,-126370
40.68,-126378
40.69,-126388
40.7,-126382
40.71,-126388
40.72,-126386
40.73,-126396
40.74,-126410
40.75,-126395
40.76,-126408
40.77,-126400
40.78,-126415
40.79,-126411
40.8,-126413
40.81,-126423
40.82,-126426
40.83,-126433
40.84,-126445
40.85,-126450
40.86,-126448
40.87,-126452
40.88,-126451
40.89,-126451
40.9,-126456
40.91,-126461
40.92,-126483
40.93,-126486
40.94,-126489
40.95,-126489
40.96,-126494
40.97,-126499
40.98,-126497
40.99,-126509
41,-126517
41.01,-126517
41.02,-126529
41.03,-126524
41.04,-126532
41.05,-126542
41.06,-126554
41.07,-126557
41.08,-126558
41.09,-126562
41.1,-126570
41.11,-126581
41.12,-126581
41.13,-126581
41.14,-126595
41.15,-126588
41.16,-126568
41.17,-126549
41.18,-126516
41.19,-126481
41.2,-126445
41.21,-126400
41.22,-126359
41.23,-126324
41.24,-126288
41.25,-126263
41.26,-126252
41.27,-126226
41.28,-126214
41.29,-126209
41.3,-126171
41.31,-126168
41.32,-126156
41.33,-126152
41.34,-126137
41.35,-126147
41.36,-126147
41.37,-126147
41.38,-126142
41.39,-126153
41.4,-126162
41.41,-126167
41.42,-126178
41.43,-126182
41.44,-126181
41.45,-126199
41.46,-126208
41.47,-126217
41.48,-126226
41.49,-126226
41.5,-126236
41.51,-126242
41.52,-126252
41.53,-126257
41.54,-126266
41.55,-126289
41.56,-126299
41.57,-126305
41.58,-126314
41.59,-126314
41.6,-126314
41.61,-126324
41.62,-126326
41.63,-126337
41.64,-126352
41.65,-126374
41.66,-126370
41.67,-126369
41.68,-126366
41.69,-126371
41.7,-126369
41.71,-126375
41.72,-126375
41.73,-126370
41.74,-126361
41.75,-126368
41.76,-126374
41.77,-126378
41.78,-126376
41.79,-126368
41.8,-126366
41.81,-126372
41.82,-126365
41.83,-126365
41.84,-126368
41.85,-126373
41.86,-126370
41.87,-126370
41.88,-126378
41.89,-126382
41.9,-126382
41.91,-126383
41.92,-126386
41.93,-126392
41.94,-126396
41.95,-126391
41.96,-126411
41.97,-126411
41.98,-126409
41.99,-126412
42,-126422
42.01,-126429
42.02,-126433
42.03,-126441
42.04,-126429
42.05,-126444
42.06,-126444
42.07,-126444
42.08,-126447
42.09,-126448
42.1,-126461
42.11,-126459
42.12,-126470
42.13,-126475
42.14,-126480
42.15,-126482
42.16,-126493
42.17,-126493
42.18,-126501
42.19,-126500
42.2,-126512
42.21,-126509
42.22,-126515
42.23,-126517
42.24,-126515
42.25,-126529
42.26,-126535
42.27,-126544
42.28,-126549
42.29,-126548
42.3,-126548
42.31,-126552
42.32,-126565
42.33,-126563
42.34,-126570
42.35,-126579
42.36,-126582
42.37,-126566
42.38,-126537
42.39,-126509
42.4,-126467
42.41,-126435
42.42,-126390
42.43,-126360
42.44,-126321
42.45,-126287
42.46,-126257
42.47,-126221
42.48,-126221
42.49,-126200
42.5,-126186
42.51,-126173
42.52,-126176
42.53,-126154
42.54,-126154
42.55,-126158
42.56,-126143
42.57,-126143
42.58,-126143
42.59,-126143
42.6,-126137
42.61,-126133
42.62,-126141
42.63,-126147
42.64,-126159
42.65,-126160
42.66,-126167
42.67,-126176
42.68,-126186
42.69,-126193
42.7,-126201
42.71,-126206
42.72,-126221
42.73,-126230
42.74,-126232
42.75,-126250
42.76,-126260
42.77,-126267
42.78,-126267
42.79,-126267
42.8,-126279
42.81,-126279
42.82,-126290
42.83,-126295
42.84,-126339
42.85,-126349
42.86,-126350
42.87,-126362
42.88,-126358
42.89,-126362
42.9,-126356
42.91,-126366
42.92,-126375
42.93,-126372
42.94,-126365
42.95,-126362
42.96,-126368
42.97,-126371
42.98,-126364
42.99,-126362
43,-126360
43.01,-126352
43.02,-126355
43.03,-126365
43.04,-126353
43.05,-126353
43.06,-126362
43.07,-126360
43.08,-126354
43.09,-126360
43.1,-126372
43.11,-126374
43.12,-126375
43.13,-126371
43.14,-126380
43.15,-126385
43.16,-126385
43.17,-126390
43.18,-126392
43.19,-126398
43.2,-126397
43.21,-126406
43.22,-126409
43.23,-126415
43.24,-126421
43.25,-126417
43.26,-126425
43.27,-126433
43.28,-126433
43.29,-126433
43.3,-126439
43.31,-126442
43.32,-126447
43.33,-126449
43.34,-126452
43.35,-126455
43.36,-126470
43.37,-126469
43.38,-126470
43.39,-126478
43.4,-126482
43.41,-126487
43.42,-126489
43.43,-126495
43.44,-126502
43.45,-126503
43.46,-126515
43.47,-126515
43.48,-126519
43.49,-126523
43.5,-126523
43.51,-126539
43.52,-126539
43.53,-126541
43.54,-126544
43.55,-126552
43.56,-126560
43.57,-126569
43.58,-126571
43.59,-126580
43.6,-126568
43.61,-126552
43.62,-126519
43.63,-126489
43.64,-126450
43.65,-126405
43.66,-126368
43.67,-126368
43.68,-126368
43.69,-126321
43.7,-126288
43.71,-126237
43.72,-126212
43.73,-126201
43.74,-126187
43.75,-126187
43.76,-126187
43.77,-126174
43.78,-126158
43.79,-126135
43.8,-126133
43.81,-126129
43.82,-126130
43.83,-126130
43.84,-126134
43.85,-126144
43.86,-126143
43.87,-126155
43.88,-126162
43.89,-126162
43.9,-126173
43.91,-126178
43.92,-126182
43.93,-126200
43.94,-126199
43.95,-126215
43.96,-126230
43.97,-126226
43.98,-126250
43.99,-126250
44,-126250
44.01,-126253
44.02,-126285
44.03,-126293
44.04,-126320
44.05,-126324
44.06,-126327
44.07,-126336
44.08,-126347
44.09,-126338
44.1,-126338
44.11,-126341
44.12,-126346
44.13,-126345
44.14,-126342
44.15,-126355
44.16,-126348
44.17,-126346
44.18,-126347
44.19,-126345
44.2,-126344
44.21,-126339
44.22,-126341
44.23,-126341
44.24,-126333
44.25,-126336
44.26,-126338
44.27,-126338
44.28,-126339
44.29,-126346
44.3,-126352
44.31,-126347
44.32,-126350
44.33,-126355
44.34,-126360
44.35,-126359
44.36,-126357
44.37,-126366
44.38,-126362
44.39,-126370
44.4,-126375
44.41,-126378
44.42,-126376
44.43,-126384
44.44,-126391
44.45,-126393
44.46,-126393
44.47,-126393
44.48,-126398
44.49,-126402
44.5,-126407
44.51,-126416
44.52,-126417
44.53,-126429
44.54,-126427
44.55,-126439
44.56,-126436
44.57,-126436
44.58,-126448
44.59,-126451
44.6,-126454
44.61,-126458
44.62,-126454
44.63,-126465
44.64,-126476
44.65,-126475
44.66,-126481
44.67,-126496
44.68,-126497
44.69,-126501
44.7,-126501
44.71,-126490
44.72,-126500
44.73,-126511
44.74,-126513
44.75,-126515
44.76,-126523
44.77,-126523
44.78,-126523
44.79,-126536
44.8,-126551
44.81,-126548
44.82,-126555
44.83,-126547
44.84,-126541
44.85,-126519
44.86,-126493
44.87,-126459
44.88,-126425
44.89,-126341
44.9,-126296
44.91,-126264
44.92,-126233
44.93,-126233
44.94,-126233
44.95,-126208
44.96,-126199
44.97,-126174
44.98,-126160
44.99,-126115
45,-126118
45.01,-126116
45.02,-126113
45.03,-126114
45.04,-126122
45.05,-126127
45.06,-126128
45.07,-126140
45.08,-126129
45.09,-126146
45.1,-126144
45.11,-126168
45.12,-126174
45.13,-126178
45.14,-126185
45.15,-126197
45.16,-126204
45.17,-126204
45.18,-126226
45.19,-126218
45.2,-126230
45.21,-126250
45.22,-126256
45.23,-126285
45.24,-126278
45.25,-126293
45.26,-126289
45.27,-126302
45.28,-126317
45.29,-126304
45.3,-126315
45.31,-126320
45.32,-126316
45.33,-126334
45.34,-126331
45.35,-126335
45.36,-126324
45.37,-126329
45.38,-126328
45.39,-126323
45.4,-126323
45.41,-126323
45.42,-126329
45.43,-126325
45.44,-126319
45.45,-126331
45.46,-126315
45.47,-126322
45.48,-126311
45.49,-126318
45.5,-126326
45.51,-126317
45.52,-126329
45.53,-126330
45.54,-126327
45.55,-126322
45.56,-126336
45.57,-126327
45.58,-126339
45.59,-126338
45.6,-126352
45.61,-126359
45.62,-126348
45.63,-126363
45.64,-126363
45.65,-126360
45.66,-126370
45.67,-126370
45.68,-126373
45.69,-126375
45.7,-126385
45.71,-126383
45.72,-126387
45.73,-126400
45.74,-126409
45.75,-126398
45.76,-126409
45.77,-126410
45.78,-126406
45.79,-126424
45.8,-126427
45.81,-126420
45.82,-126423
45.83,-126430
45.84,-126431
45.85,-126431
45.86,-126431
45.87,-126435
45.88,-126435
45.89,-126435
45.9,-126450
45.91,-126442
45.92,-126444
45.93,-126450
45.94,-126453
45.95,-126456
45.96,-126476
45.97,-126474
45.98,-126467
45.99,-126471
46,-126479
46.01,-126489
46.02,-126500
46.03,-126487
46.04,-126491
46.05,-126480
46.06,-126430
46.07,-126399
46.08,-126348
46.09,-126312
46.1,-126284
46.11,-126254
46.12,-126254
46.13,-126217
46.14,-126199
46.15,-126199
46.16,-126183
46.17,-126107
46.18,-126108
46.19,-126102
46.2,-126092
46.21,-126083
46.22,-126090
46.23,-126090
46.24,-126094
46.25,-126095
46.26,-126091
46.27,-126095
46.28,-126106
46.29,-126108
46.3,-126105
46.31,-126126
46.32,-126137
46.33,-126146
46.34,-126153
46.35,-126153
46.36,-126166
46.37,-126170
46.38,-126181
46.39,-126194
46.4,-126213
46.41,-126231
46.42,-126234
46.43,-126240
46.44,-126254
46.45,-126263
46.46,-126263
46.47,-126274
46.48,-126281
46.49,-126291
46.5,-126297
46.51,-126290
46.52,-126292
46.53,-126307
46.54,-126296
46.55,-126302
46.56,-126299
46.57,-126307
46.58,-126307
46.59,-126307
46.6,-126303
46.61,-126304
46.62,-126303
46.63,-126298
46.64,-126289
46.65,-126299
46.66,-126302
46.67,-126285
46.68,-126300
46.69,-126303
46.7,-126298
46.71,-126294
46.72,-126303
46.73,-126300
46.74,-126301
46.75,-126296
46.76,-126304
46.77,-126317
46.78,-126319
46.79,-126311
46.8,-126316
46.81,-126322
46.82,-126322
46.83,-126327
46.84,-126337
46.85,-126344
46.86,-126339
46.87,-126338
46.88,-126349
46.89,-126357
46.9,-126357
46.91,-126361
46.92,-126360
46.93,-126362
46.94,-126362
46.95,-126362
46.96,-126362
46.97,-126369
46.98,-126371
46.99,-126386
47,-126390
47.01,-126386
47.02,-126403
47.03,-126407
47.04,-126402
47.05,-126405
47.06,-126405
47.07,-126405
47.08,-126405
47.09,-126405
47.1,-126418
47.11,-126421
47.12,-126411
47.13,-126432
47.14,-126445
47.15,-126440
47.16,-126450
47.17,-126452
47.18,-126452
47.19,-126463
47.2,-126442
47.21,-126439
47.22,-126432
47.23,-126409
47.24,-126377
47.25,-126313
47.26,-126252
47.27,-126216
47.28,-126196
47.29,-126185
47.3,-126161
47.31,-126145
47.32,-126129
47.33,-126129
47.34,-126129
47.35,-126120
47.36,-126120
47.37,-126081
47.38,-126079
47.39,-126069
47.4,-126069
47.41,-126064
47.42,-126062
47.43,-126061
47.44,-126062
47.45,-126068
47.46,-126076
47.47,-126076
47.48,-126073
47.49,-126079
47.5,-126087
47.51,-126085
47.52,-126102
47.53,-126126
47.54,-126130
47.55,-126144
47.56,-126155
47.57,-126184
47.58,-126204
47.59,-126214
47.6,-126214
47.61,-126214
47.62,-126214
47.63,-126232
47.64,-126241
47.65,-126237
47.66,-126238
47.67,-126255
47.68,-126263
47.69,-126269
47.7,-126259
47.71,-126266
47.72,-126274
47.73,-126278
47.74,-126265
47.75,-126271
47.76,-126272
47.77,-126268
47.78,-126267
47.79,-126267
47.8,-126260
47.81,-126266
47.82,-126266
47.83,-126257
47.84,-126257
47.85,-126258
47.86,-126261
47.87,-126257
47.88,-126267
47.89,-126265
47.9,-126272
47.91,-126265
47.92,-126272
47.93,-126267
47.94,-126270
47.95,-126272
47.96,-126274
47.97,-126284
47.98,-126278
47.99,-126283
48,-126295
48.01,-126302
48.02,-126307
48.03,-126312
48.04,-126318
48.05,-126314
48.06,-126314
48.07,-126319
48.08,-126319
48.09,-126319
48.1,-126327
48.11,-126330
48.12,-126332
48.13,-126338
48.14,-126339
48.15,-126339
48.16,-126346
48.17,-126344
48.18,-126358
48.19,-126356
48.2,-126362
48.21,-126367
48.22,-126373
48.23,-126370
48.24,-126375
48.25,-126384
48.26,-126393
48.27,-126392
48.28,-126390
48.29,-126396
48.3,-126409
48.31,-126400
48.32,-126400
48.33,-126400
48.34,-126392
48.35,-126377
48.36,-126364
48.37,-126351
48.38,-126310
48.39,-126286
48.4,-126261
48.41,-126218
48.42,-126196
48.43,-126174
48.44,-126148
48.45,-126134
48.46,-126116
48.47,-126095
48.48,-126091
48.49,-126068
48.5,-126053
48.51,-126044
48.52,-126035
48.53,-126021
48.54,-126015
48.55,-126006
48.56,-126006
48.57,-126006
48.58,-126003
48.59,-126023
48.6,-126030
48.61,-126031
48.62,-126039
48.63,-126045
48.64,-126045
48.65,-126054
48.66,-126072
48.67,-126077
48.68,-126087
48.69,-126096
48.7,-126100
48.71,-126112
48.72,-126122
48.73,-126127
48.74,-126154
48.75,-126168
48.76,-126175
48.77,-126178
48.78,-126197
48.79,-126201
48.8,-126201
48.81,-126204
48.82,-126201
48.83,-126220
48.84,-126220
48.85,-126222
48.86,-126224
48.87,-126223
48.88,-126232
48.89,-126229
48.9,-126225
48.91,-126228
48.92,-126235
48.93,-126225
48.94,-126227
48.95,-126225
48.96,-126223
48.97,-126219
48.98,-126215
48.99,-126214
49,-126221
49.01,-126217
49.02,-126221
49.03,-126221
49.04,-126221
49.05,-126220
49.06,-126222
49.07,-126216
49.08,-126221
49.09,-126225
49.1,-126228
49.11,-126228
49.12,-126233
49.13,-126237
49.14,-126242
49.15,-126255
49.16,-126255
49.17,-126252
49.18,-126249
49.19,-126265
49.2,-126254
49.21,-126263
49.22,-126269
49.23,-126281
49.24,-126284
49.25,-126293
49.26,-126293
49.27,-126293
49.28,-126295
49.29,-126292
49.3,-126289
49.31,-126298
49.32,-126317
49.33,-126322
49.34,-126325
49.35,-126325
49.36,-126338
49.37,-126337
49.38,-126341
49.39,-126348
49.4,-126341
49.41,-126353
49.42,-126353
49.43,-126358
49.44,-126357
49.45,-126367
49.46,-126368
49.47,-126371
49.48,-126374
49.49,-126357
49.5,-126357
49.51,-126357
49.52,-126365
49.53,-126348
49.54,-126337
49.55,-126311
49.56,-126220
49.57,-126197
49.58,-126163
49.59,-126145
49.6,-126127
49.61,-126108
49.62,-126095
49.63,-126079
49.64,-126062
49.65,-126058
49.66,-126045
49.67,-126028
49.68,-126025
49.69,-126011
49.7,-126012
49.71,-126004
49.72,-126006
49.73,-126006
49.74,-126006
49.75,-126010
49.76,-126013
49.77,-126012
49.78,-126014
49.79,-126027
49.8,-126029
49.81,-126057
49.82,-126063
49.83,-126066
49.84,-126074
49.85,-126081
49.86,-126089
49.87,-126105
49.88,-126120
49.89,-126129
49.9,-126135
49.91,-126155
49.92,-126171
49.93,-126179
49.94,-126188
49.95,-126193
49.96,-126207
49.97,-126207
49.98,-126209
49.99,-126214
50,-126219
50.01,-126220
50.02,-126231
50.03,-126207
50.04,-126230
50.05,-126238
50.06,-126231
50.07,-126218
50.08,-126217
50.09,-126227
50.1,-126223
50.11,-126215
50.12,-126213
50.13,-126213
50.14,-126214
50.15,-126215
50.16,-126219
50.17,-126217
50.18,-126212
50.19,-126207
50.2,-126207
50.21,-126207
50.22,-126216
50.23,-126216
50.24,-126229
50.25,-126224
50.26,-126224
50.27,-126221
50.28,-126227
50.29,-126239
50.3,-126235
50.31,-126246
50.32,-126250
50.33,-126249
50.34,-126252
50.35,-126261
50.36,-126265
50.37,-126269
50.38,-126269
50.39,-126275
50.4,-126281
50.41,-126275
50.42,-126286
50.43,-126293
50.44,-126293
50.45,-126293
50.46,-126303
50.47,-126303
50.48,-126307
50.49,-126324
50.5,-126325
50.51,-126333
50.52,-126331
50.53,-126340
50.54,-126348
50.55,-126357
50.56,-126351
50.57,-126357
50.58,-126352
50.59,-126356
50.6,-126370
50.61,-126369
50.62,-126375
50.63,-126379
50.64,-126377
50.65,-126387
50.66,-126377
50.67,-126383
50.68,-126383
50.69,-126382
50.7,-126357
50.71,-126340
50.72,-126306
50.73,-126205
50.74,-126184
50.75,-126149
50.76,-126138
50.77,-126138
50.78,-126118
50.79,-126101
50.8,-126090
50.81,-126077
50.82,-126068
50.83,-126061
50.84,-126045
50.85,-126041
50.86,-126033
50.87,-126034
50.88,-126030
50.89,-126037
50.9,-126037
50.91,-126037
50.92,-126032
50.93,-126040
50.94,-126042
50.95,-126050
50.96,-126079
50.97,-126084
50.98,-126102
50.99,-126103
51,-126116
51.01,-126120
51.02,-126133
51.03,-126144
51.04,-126152
51.05,-126163
51.06,-126172
51.07,-126188
51.08,-126204
51.09,-126207
51.1,-126222
51.11,-126225
51.12,-126226
51.13,-126242
51.14,-126242
51.15,-126242
51.16,-126237
51.17,-126253
51.18,-126260
51.19,-126252
51.2,-126265
51.21,-126265
51.22,-126252
51.23,-126263
51.24,-126248
51.25,-126256
51.26,-126249
51.27,-126252
51.28,-126245
51.29,-126242
51.3,-126245
51.31,-126252
51.32,-126249
51.33,-126250
51.34,-126250
51.35,-126249
51.36,-126250
51.37,-126260
51.38,-126260
51.39,-126260
51.4,-126261
51.41,-126261
51.42,-126253
51.43,-126253
51.44,-126259
51.45,-126269
51.46,-126275
51.47,-126270
51.48,-126271
51.49,-126277
51.5,-126285
51.51,-126282
51.52,-126292
51.53,-126292
51.54,-126306
51.55,-126305
51.56,-126305
51.57,-126310
51.58,-126322
51.59,-126326
51.6,-126330
51.61,-126333
51.62,-126340
51.63,-126330
51.64,-126347
51.65,-126347
51.66,-126347
51.67,-126348
51.68,-126360
51.69,-126370
51.7,-126366
51.71,-126375
51.72,-126380
51.73,-126386
51.74,-126386
51.75,-126390
51.76,-126387
51.77,-126390
51.78,-126403
51.79,-126408
51.8,-126408
51.81,-126416
51.82,-126424
51.83,-126432
51.84,-126435
51.85,-126435
51.86,-126440
51.87,-126436
51.88,-126426
51.89,-126426
51.9,-126400
51.91,-126304
51.92,-126272
51.93,-126243
51.94,-126211
51.95,-126178
51.96,-126151
51.97,-126135
51.98,-126135
51.99,-126105
52,-126106
52.01,-126091
52.02,-126081
52.03,-126071
52.04,-126066
52.05,-126069
52.06,-126057
52.07,-126057
52.08,-126054
52.09,-126064
52.1,-126067
52.11,-126059
52.12,-126065
52.13,-126065
52.14,-126093
52.15,-126097
52.16,-126111
52.17,-126123
52.18,-126130
52.19,-126152
52.2,-126165
52.21,-126172
52.22,-126186
52.23,-126190
52.24,-126202
52.25,-126206
52.26,-126218
52.27,-126229
52.28,-126223
52.29,-126235
52.3,-126246
52.31,-126256
52.32,-126269
52.33,-126266
52.34,-126272
52.35,-126277
52.36,-126277
52.37,-126277
52.38,-126282
52.39,-126289
52.4,-126286
52.41,-126289
52.42,-126297
52.43,-126290
52.44,-126289
52.45,-126289
52.46,-126288
52.47,-126288
52.48,-126279
52.49,-126282
52.5,-126285
52.51,-126277
52.52,-126271
52.53,-126275
52.54,-126273
52.55,-126272
52.56,-126276
52.57,-126278
52.58,-126280
52.59,-126280
52.6,-126280
52.61,-126294
52.62,-126302
52.63,-126305
52.64,-126300
52.65,-126299
52.66,-126312
52.67,-126303
52.68,-126308
52.69,-126316
52.7,-126323
52.71,-126331
52.72,-126344
52.73,-126348
52.74,-126355
52.75,-126360
52.76,-126371
52.77,-126381
52.78,-126376
52.79,-126381
52.8,-126379
52.81,-126377
52.82,-126373
52.83,-126373
52.84,-126373
52.85,-126378
52.86,-126389
52.87,-126381
52.88,-126383
52.89,-126387
52.9,-126415
52.91,-126419
52.92,-126423
52.93,-126434
52.94,-126426
52.95,-126438
52.96,-126431
52.97,-126433
52.98,-126445
52.99,-126451
53,-126460
53.01,-126464
53.02,-126471
53.03,-126478
53.04,-126476
53.05,-126469
53.06,-126478
53.07,-126478
53.08,-126479
53.09,-126463
53.1,-126427
53.11,-126404
53.12,-126300
53.13,-126265
53.14,-126233
53.15,-126216
53.16,-126186
53.17,-126168
53.18,-126153
53.19,-126131
53.2,-126112
53.21,-126112
53.22,-126096
53.23,-126085
53.24,-126069
53.25,-126082
53.26,-126074
53.27,-126065
53.28,-126066
53.29,-126066
53.3,-126066
53.31,-126083
53.32,-126081
53.33,-126092
53.34,-126091
53.35,-126092
53.36,-126117
53.37,-126122
53.38,-126135
53.39,-126146
53.4,-126153
53.41,-126160
53.42,-126164
53.43,-126184
53.44,-126188
53.45,-126198
53.46,-126206
53.47,-126228
53.48,-126237
53.49,-126239
53.5,-126262
53.51,-126271
53.52,-126271
53.53,-126271
53.54,-126271
53.55,-126271
53.56,-126275
53.57,-126291
53.58,-126295
53.59,-126293
53.6,-126307
53.61,-126298
53.62,-126311
53.63,-126316
53.64,-126308
53.65,-126293
53.66,-126312
53.67,-126301
53.68,-126305
53.69,-126297
53.7,-126295
53.71,-126303
53.72,-126293
53.73,-126294
53.74,-126296
53.75,-126296
53.76,-126293
53.77,-126293
53.78,-126293
53.79,-126304
53.8,-126306
53.81,-126304
53.82,-126313
53.83,-126314
53.84,-126315
53.85,-126315
53.86,-126318
53.87,-126316
53.88,-126326
53.89,-126329
53.9,-126338
53.91,-126335
53.92,-126343
53.93,-126349
53.94,-126358
53.95,-126372
53.96,-126367
53.97,-126373
53.98,-126378
53.99,-126382
54,-126382
54.01,-126382
54.02,-126380
54.03,-126380
54.04,-126380
54.05,-126379
54.06,-126380
54.07,-126389
54.08,-126393
54.09,-126401
54.1,-126406
54.11,-126408
54.12,-126418
54.13,-126420
54.14,-126422
54.15,-126432
54.16,-126443
54.17,-126448
54.18,-126443
54.19,-126456
54.2,-126457
54.21,-126458
54.22,-126460
54.23,-126470
54.24,-126466
54.25,-126472
54.26,-126474
54.27,-126474
54.28,-126480
54.29,-126479
54.3,-126433
54.31,-126413
54.32,-126381
54.33,-126343
54.34,-126294
54.35,-126265
54.36,-126219
54.37,-126192
54.38,-126176
54.39,-126151
54.4,-126151
54.41,-126131
54.42,-126117
54.43,-126115
54.44,-126097
54.45,-126081
54.46,-126075
54.47,-126070
54.48,-126063
54.49,-126061
54.5,-126066
54.51,-126066
54.52,-126071
54.53,-126101
54.54,-126099
54.55,-126108
54.56,-126108
54.57,-126111
54.58,-126120
54.59,-126132
54.6,-126135
54.61,-126144
54.62,-126157
54.63,-126170
54.64,-126170
54.65,-126170
54.66,-126183
54.67,-126192
54.68,-126210
54.69,-126219
54.7,-126242
54.71,-126248
54.72,-126257
54.73,-126264
54.74,-126272
54.75,-126272
54.76,-126272
54.77,-126278
54.78,-126281
54.79,-126296
54.8,-126293
54.81,-126291
54.82,-126310
54.83,-126304
54.84,-126305
54.85,-126304
54.86,-126307
54.87,-126307
54.88,-126309
54.89,-126302
54.9,-126313
54.91,-126300
54.92,-126291
54.93,-126293
54.94,-126292
54.95,-126294
54.96,-126300
54.97,-126300
54.98,-126292
54.99,-126292
55,-126295
55.01,-126297
55.02,-126297
55.03,-126306
55.04,-126303
55.05,-126320
55.06,-126319
55.07,-126314
55.08,-126324
55.09,-126332
55.1,-126331
55.11,-126336
55.12,-126338
55.13,-126342
55.14,-126347
55.15,-126356
55.16,-126361
55.17,-126361
55.18,-126370
55.19,-126372
55.2,-126370
55.21,-126383
55.22,-126383
55.23,-126383
55.24,-126390
55.25,-126391
55.26,-126412
55.27,-126419
55.28,-126414
55.29,-126417
55.3,-126432
55.31,-126429
55.32,-126443
55.33,-126430
55.34,-126440
55.35,-126445
55.36,-126445
55.37,-126448
55.38,-126446
55.39,-126445
55.4,-126457
55.41,-126462
55.42,-126460
55.43,-126476
55.44,-126482
55.45,-126478
55.46,-126478
55.47,-126483
55.48,-126493
55.49,-126500
55.5,-126507
55.51,-126501
55.52,-126483
55.53,-126463
55.54,-126433
55.55,-126391
55.56,-126347
55.57,-126312
55.58,-126276
55.59,-126226
55.6,-126209
55.61,-126185
55.62,-126171
55.63,-126136
55.64,-126124
55.65,-126107
55.66,-126098
55.67,-126088
55.68,-126088
55.69,-126088
55.7,-126079
55.71,-126074
55.72,-126073
55.73,-126073
55.74,-126073
55.75,-126073
55.76,-126083
55.77,-126083
55.78,-126085
55.79,-126095
55.8,-126107
55.81,-126111
55.82,-126117
55.83,-126119
55.84,-126131
55.85,-126138
55.86,-126153
55.87,-126161
55.88,-126176
55.89,-126187
55.9,-126197
55.91,-126206
55.92,-126206
55.93,-126206
55.94,-126211
55.95,-126231
55.96,-126235
55.97,-126242
55.98,-126252
55.99,-126284
56,-126295
56.01,-126300
56.02,-126301
56.03,-126302
56.04,-126307
56.05,-126302
56.06,-126311
56.07,-126304
56.08,-126291
56.09,-126287
56.1,-126293
56.11,-126286
56.12,-126277
56.13,-126282
56.14,-126283
56.15,-126288
56.16,-126288
56.17,-126287
56.18,-126295
56.19,-126297
56.2,-126300
56.21,-126305
56.22,-126303
56.23,-126307
56.24,-126303
56.25,-126297
56.26,-126296
56.27,-126296
56.28,-126295
56.29,-126299
56.3,-126293
56.31,-126310
56.32,-126316
56.33,-126336
56.34,-126330
56.35,-126346
56.36,-126356
56.37,-126349
56.38,-126354
56.39,-126354
56.4,-126340
56.41,-126367
56.42,-126364
56.43,-126367
56.44,-126368
56.45,-126364
56.46,-126374
56.47,-126374
56.48,-126377
56.49,-126384
56.5,-126391
56.51,-126398
56.52,-126400
56.53,-126413
56.54,-126416
56.55,-126417
56.56,-126427
56.57,-126438
56.58,-126439
56.59,-126447
56.6,-126441
56.61,-126443
56.62,-126443
56.63,-126443
56.64,-126445
56.65,-126435
56.66,-126440
56.67,-126438
56.68,-126435
56.69,-126456
56.7,-126463
56.71,-126466
56.72,-126467
56.73,-126474
56.74,-126473
56.75,-126472
56.76,-126450
56.77,-126436
56.78,-126406
56.79,-126370
56.8,-126293
56.81,-126249
56.82,-126249
56.83,-126210
56.84,-126184
56.85,-126163
56.86,-126163
56.87,-126163
56.88,-126163
56.89,-126143
56.9,-126117
56.91,-126110
56.92,-126097
56.93,-126080
56.94,-126049
56.95,-126047
56.96,-126051
56.97,-126044
56.98,-126047
56.99,-126049
57,-126049
57.01,-126047
57.02,-126058
57.03,-126072
57.04,-126070
57.05,-126084
57.06,-126090
57.07,-126095
57.08,-126111
57.09,-126114
57.1,-126114
57.11,-126125
57.12,-126135
57.13,-126138
57.14,-126147
57.15,-126206
57.16,-126216
57.17,-126219
57.18,-126230
57.19,-126226
57.2,-126237
57.21,-126245
57.22,-126239
57.23,-126246
57.24,-126251
57.25,-126249
57.26,-126247
57.27,-126254
57.28,-126251
57.29,-126259
57.3,-126253
57.31,-126256
57.32,-126251
57.33,-126251
57.34,-126251
57.35,-126255
57.36,-126258
57.37,-126256
57.38,-126244
57.39,-126248
57.4,-126245
57.41,-126247
57.42,-126247
57.43,-126253
57.44,-126248
57.45,-126251
57.46,-126257
57.47,-126260
57.48,-126259
57.49,-126256
57.5,-126262
57.51,-126268
57.52,-126264
57.53,-126267
57.54,-126273
57.55,-126286
57.56,-126291
57.57,-126291
57.58,-126293
57.59,-126288
57.6,-126287
57.61,-126297
57.62,-126319
57.63,-126319
57.64,-126312
57.65,-126326
57.66,-126326
57.67,-126332
57.68,-126340
57.69,-126341
57.7,-126341
57.71,-126355
57.72,-126351
57.73,-126355
57.74,-126365
57.75,-126362
57.76,-126359
57.77,-126368
57.78,-126369
57.79,-126377
57.8,-126377
57.81,-126377
57.82,-126380
57.83,-126388
57.84,-126395
57.85,-126401
57.86,-126410
57.87,-126403
57.88,-126407
57.89,-126407
57.9,-126412
57.91,-126410
57.92,-126410
57.93,-126418
57.94,-126414
57.95,-126425
57.96,-126429
57.97,-126435
57.98,-126424
57.99,-126396
58,-126377
58.01,-126350
58.02,-126317
58.03,-126317
58.04,-126317
58.05,-126284
58.06,-126241
58.07,-126203
58.08,-126174
58.09,-126151
58.1,-126078
58.11,-126071
58.12,-126053
58.13,-126039
58.14,-126039
58.15,-126031
58.16,-126027
58.17,-126024
58.18,-126015
58.19,-126013
58.2,-126012
58.21,-126029
58.22,-126021
58.23,-126025
58.24,-126033
58.25,-126038
58.26,-126051
58.27,-126051
58.28,-126051
58.29,-126051
58.3,-126060
58.31,-126061
58.32,-126074
58.33,-126114
58.34,-126125
58.35,-126127
58.36,-126144
58.37,-126143
58.38,-126160
58.39,-126169
58.4,-126173
58.41,-126177
58.42,-126196
58.43,-126204
58.44,-126208
58.45,-126214
58.46,-126214
58.47,-126228
58.48,-126211
58.49,-126221
58.5,-126221
58.51,-126221
58.52,-126221
58.53,-126235
58.54,-126220
58.55,-126217
58.56,-126212
58.57,-126209
58.58,-126214
58.59,-126220
58.6,-126220
58.61,-126212
58.62,-126230
58.63,-126222
58.64,-126218
58.65,-126225
58.66,-126228
58.67,-126227
58.68,-126235
58.69,-126241
58.7,-126240
58.71,-126241
58.72,-126240
58.73,-126236
58.74,-126244
58.75,-126244
58.76,-126245
58.77,-126242
58.78,-126253
58.79,-126251
58.8,-126261
58.81,-126275
58.82,-126280
58.83,-126285
58.84,-126288
58.85,-126290
58.86,-126301
58.87,-126299
58.88,-126306
58.89,-126306
58.9,-126307
58.91,-126316
58.92,-126315
58.93,-126321
58.94,-126323
58.95,-126331
58.96,-126332
58.97,-126340
58.98,-126340
58.99,-126345
59,-126343
59.01,-126343
59.02,-126343
59.03,-126348
59.04,-126350
59.05,-126362
59.06,-126364
59.07,-126373
59.08,-126369
59.09,-126373
59.1,-126381
59.11,-126384
59.12,-126382
59.13,-126386
59.14,-126388
59.15,-126380
59.16,-126392
59.17,-126390
59.18,-126405
59.19,-126395
59.2,-126406
59.21,-126406
59.22,-126406
59.23,-126396
59.24,-126386
59.25,-126371
59.26,-126352
59.27,-126210
59.28,-126166
59.29,-126154
59.3,-126138
59.31,-126121
59.32,-126099
59.33,-126078
59.34,-126059
59.35,-126042
59.36,-126042
59.37,-126027
59.38,-126010
59.39,-126006
59.4,-125993
59.41,-125997
59.42,-126005
59.43,-126000
59.44,-126004
59.45,-126004
59.46,-126004
59.47,-125994
59.48,-125994
59.49,-126006
59.5,-126014
59.51,-126022
59.52,-126042
59.53,-126052
59.54,-126061
59.55,-126058
59.56,-126085
59.57,-126089
59.58,-126098
59.59,-126104
59.6,-126110
59.61,-126119
59.62,-126130
59.63,-126142
59.64,-126159
59.65,-126174
59.66,-126185
59.67,-126189
59.68,-126198
59.69,-126207
59.7,-126209
59.71,-126210
59.72,-126210
59.73,-126210
59.74,-126219
59.75,-126206
59.76,-126212
59.77,-126226
59.78,-126217
59.79,-126210
59.8,-126216
59.81,-126221
59.82,-126213
59.83,-126205
59.84,-126210
59.85,-126221
59.86,-126207
59.87,-126212
59.88,-126211
59.89,-126216
59.9,-126209
59.91,-126218
59.92,-126221
59.93,-126221
59.94,-126228
59.95,-126228
59.96,-126228
59.97,-126230
59.98,-126226
59.99,-126247
60,-126246
60.01,-126260
60.02,-126258
60.03,-126258
60.04,-126267
60.05,-126266
60.06,-126282
60.07,-126277
60.08,-126283
60.09,-126278
60.1,-126284
60.11,-126284
60.12,-126287
60.13,-126287
60.14,-126294
60.15,-126298
60.16,-126305
60.17,-126314
60.18,-126322
60.19,-126322
60.2,-126322
60.21,-126319
60.22,-126335
60.23,-126343
60.24,-126342
60.25,-126347
60.26,-126341
60.27,-126347
60.28,-126358
60.29,-126356
60.3,-126359
60.31,-126361
60.32,-126362
60.33,-126360
60.34,-126366
60.35,-126372
60.36,-126375
60.37,-126374
60.38,-126389
60.39,-126389
60.4,-126387
60.41,-126396
60.42,-126396
60.43,-126396
60.44,-126392
60.45,-126339
60.46,-126320
60.47,-126281
60.48,-126259
60.49,-126223
60.5,-126198
60.51,-126173
60.52,-126148
60.53,-126135
60.54,-126118
60.55,-126105
60.56,-126071
60.57,-126068
60.58,-126047
60.59,-126032
60.6,-126014
60.61,-126000
60.62,-125999
60.63,-125986
60.64,-125987
60.65,-125987
60.66,-125987
60.67,-125987
60.68,-125986
60.69,-125991
60.7,-125996
60.71,-126012
60.72,-126011
60.73,-126027
60.74,-126040
60.75,-126048
60.76,-126053
60.77,-126064
60.78,-126074
60.79,-126089
60.8,-126090
60.81,-126100
60.82,-126112
60.83,-126118
60.84,-126143
60.85,-126143
60.86,-126163
60.87,-126170
60.88,-126182
60.89,-126185
60.9,-126185
60.91,-126191
60.92,-126196
60.93,-126201
60.94,-126206
60.95,-126202
60.96,-126211
60.97,-126204
60.98,-126204
60.99,-126208
61,-126212
61.01,-126202
61.02,-126203
61.03,-126199
61.04,-126197
61.05,-126197
61.06,-126196
61.07,-126193
61.08,-126198
61.09,-126192
61.1,-126205
61.11,-126201
61.12,-126200
61.13,-126200
61.14,-126200
61.15,-126206
61.16,-126203
61.17,-126210
61.18,-126216
61.19,-126212
61.2,-126233
61.21,-126233
61.22,-126232
61.23,-126230
61.24,-126244
61.25,-126239
61.26,-126242
61.27,-126247
61.28,-126250
61.29,-126252
61.3,-126254
61.31,-126264
61.32,-126264
61.33,-126278
61.34,-126279
61.35,-126282
61.36,-126282
61.37,-126282
61.38,-126287
61.39,-126292
61.4,-126297
61.41,-126304
61.42,-126319
61.43,-126324
61.44,-126318
61.45,-126325
61.46,-126337
61.47,-126331
61.48,-126333
61.49,-126337
61.5,-126343
61.51,-126340
61.52,-126348
61.53,-126348
61.54,-126355
61.55,-126352
61.56,-126363
61.57,-126364
61.58,-126367
61.59,-126367
61.6,-126367
61.61,-126367
61.62,-126370
61.63,-126375
61.64,-126363
61.65,-126355
61.66,-126306
61.67,-126276
61.68,-126257
61.69,-126224
61.7,-126191
61.71,-126173
61.72,-126145
61.73,-126134
61.74,-126105
61.75,-126099
61.76,-126076
61.77,-126063
61.78,-126025
61.79,-126016
61.8,-126013
61.81,-125999
61.82,-125983
61.83,-125978
61.84,-125978
61.85,-125978
61.86,-125976
61.87,-125976
61.88,-125979
61.89,-125976
61.9,-125978
61.91,-125984
61.92,-125997
61.93,-126014
61.94,-126005
61.95,-126019
61.96,-126022
61.97,-126031
61.98,-126045
61.99,-126051
62,-126061
62.01,-126071
62.02,-126084
62.03,-126102
62.04,-126120
62.05,-126136
62.06,-126137
62.07,-126150
62.08,-126163
62.09,-126167
62.1,-126172
62.11,-126172
62.12,-126175
62.13,-126197
62.14,-126200
62.15,-126201
62.16,-126203
62.17,-126200
62.18,-126202
62.19,-126204
62.2,-126204
62.21,-126197
62.22,-126196
62.23,-126190
62.24,-126196
62.25,-126200
62.26,-126195
62.27,-126196
62.28,-126190
62.29,-126190
62.3,-126190
62.31,-126190
62.32,-126198
62.33,-126201
62.34,-126201
62.35,-126201
62.36,-126196
62.37,-126193
62.38,-126202
62.39,-126198
62.4,-126212
62.41,-126212
62.42,-126218
62.43,-126214
62.44,-126219
62.45,-126220
62.46,-126226
62.47,-126225
62.48,-126244
62.49,-126233
62.5,-126238
62.51,-126255
62.52,-126255
62.53,-126258
62.54,-126269
62.55,-126264
62.56,-126265
62.57,-126274
62.58,-126274
62.59,-126284
62.6,-126293
62.61,-126308
62.62,-126309
62.63,-126311
62.64,-126316
62.65,-126315
62.66,-126317
62.67,-126319
62.68,-126324
62.69,-126325
62.7,-126333
62.71,-126335
62.72,-126333
62.73,-126329
62.74,-126343
62.75,-126347
62.76,-126355
62.77,-126353
62.78,-126360
62.79,-126359
62.8,-126366
62.81,-126374
62.82,-126374
62.83,-126374
62.84,-126367
62.85,-126367
62.86,-126371
62.87,-126378
62.88,-126369
62.89,-126363
62.9,-126356
62.91,-126345
62.92,-126320
62.93,-126308
62.94,-126274
62.95,-126234
62.96,-126205
62.97,-126182
62.98,-126151
62.99,-126140
63,-126112
63.01,-126085
63.02,-126054
63.03,-126038
63.04,-126035
63.05,-126024
63.06,-126011
63.07,-126003
63.08,-126007
63.09,-126007
63.1,-126007
63.11,-126006
63.12,-126006
63.13,-126015
63.14,-126020
63.15,-126027
63.16,-126032
63.17,-126031
63.18,-126037
63.19,-126052
63.2,-126062
63.21,-126069
63.22,-126069
63.23,-126090
63.24,-126092
63.25,-126100
63.26,-126118
63.27,-126129
63.28,-126137
63.29,-126154
63.3,-126174
63.31,-126183
63.32,-126195
63.33,-126196
63.34,-126214
63.35,-126209
63.36,-126209
63.37,-126220
63.38,-126224
63.39,-126220
63.4,-126227
63.41,-126227
63.42,-126227
63.43,-126227
63.44,-126235
63.45,-126236
63.46,-126233
63.47,-126227
63.48,-126222
63.49,-126220
63.5,-126230
63.51,-126217
63.52,-126218
63.53,-126226
63.54,-126212
63.55,-126220
63.56,-126221
63.57,-126229
63.58,-126226
63.59,-126226
63.6,-126226
63.61,-126229
63.62,-126244
63.63,-126234
63.64,-126238
63.65,-126245
63.66,-126251
63.67,-126248
63.68,-126254
63.69,-126254
63.7,-126260
63.71,-126264
63.72,-126268
63.73,-126273
63.74,-126268
63.75,-126281
63.76,-126287
63.77,-126294
63.78,-126296
63.79,-126299
63.8,-126305
63.81,-126317
63.82,-126324
63.83,-126324
63.84,-126323
63.85,-126322
63.86,-126331
63.87,-126340
63.88,-126351
63.89,-126335
63.9,-126353
63.91,-126355
63.92,-126354
63.93,-126364
63.94,-126367
63.95,-126362
63.96,-126362
63.97,-126366
63.98,-126369
63.99,-126374
64,-126376
64.01,-126381
64.02,-126388
64.03,-126404
64.04,-126406
64.05,-126407
64.06,-126417
64.07,-126417
64.08,-126417
64.09,-126414
64.1,-126434
64.11,-126427
64.12,-126432
64.13,-126437
64.14,-126432
64.15,-126439
64.16,-126446
64.17,-126446
64.18,-126444
64.19,-126441
64.2,-126426
64.21,-126414
64.22,-126382
64.23,-126351
64.24,-126314
64.25,-126242
64.26,-126214
64.27,-126184
64.28,-126167
64.29,-126149
64.3,-126140
64.31,-126140
64.32,-126140
64.33,-126109
64.34,-126096
64.35,-126070
64.36,-126066
64.37,-126060
64.38,-126054
64.39,-126060
64.4,-126057
64.41,-126053
64.42,-126065
64.43,-126062
64.44,-126070
64.45,-126073
64.46,-126088
64.47,-126084
64.48,-126096
64.49,-126118
64.5,-126126
64.51,-126126
64.52,-126137
64.53,-126141
64.54,-126141
64.55,-126141
64.56,-126152
64.57,-126163
64.58,-126165
64.59,-126174
64.6,-126192
64.61,-126211
64.62,-126217
64.63,-126222
64.64,-126235
64.65,-126240
64.66,-126247
64.67,-126250
64.68,-126255
64.69,-126261
64.7,-126271
64.71,-126275
64.72,-126271
64.73,-126284
64.74,-126288
64.75,-126290
64.76,-126281
64.77,-126281
64.78,-126281
64.79,-126281
64.8,-126284
64.81,-126289
64.82,-126283
64.83,-126292
64.84,-126267
64.85,-126277
64.86,-126276
64.87,-126280
64.88,-126274
64.89,-126287
64.9,-126278
64.91,-126283
64.92,-126289
64.93,-126296
64.94,-126299
64.95,-126293
64.96,-126301
64.97,-126309
64.98,-126308
64.99,-126310
65,-126313
65.01,-126319
65.02,-126319
65.03,-126322
65.04,-126325
65.05,-126325
65.06,-126347
65.07,-126343
65.08,-126352
65.09,-126354
65.1,-126352
65.11,-126364
65.12,-126374
65.13,-126374
65.14,-126379
65.15,-126383
65.16,-126389
65.17,-126394
65.18,-126392
65.19,-126392
65.2,-126394
65.21,-126400
65.22,-126404
65.23,-126413
65.24,-126414
65.25,-126414
65.26,-126421
65.27,-126426
65.28,-126423
65.29,-126427
65.3,-126442
65.31,-126445
65.32,-126440
65.33,-126451
65.34,-126453
65.35,-126454
65.36,-126468
65.37,-126462
65.38,-126460
65.39,-126472
65.4,-126474
65.41,-126473
65.42,-126493
65.43,-126484
65.44,-126489
65.45,-126493
65.46,-126492
65.47,-126501
65.48,-126501
65.49,-126501
65.5,-126498
65.51,-126515
65.52,-126510
65.53,-126529
65.54,-126488
65.55,-126469
65.56,-126439
65.57,-126404
65.58,-126361
65.59,-126314
65.6,-126314
65.61,-126276
65.62,-126254
65.63,-126237
65.64,-126237
65.65,-126206
65.66,-126198
65.67,-126182
65.68,-126162
65.69,-126140
65.7,-126133
65.71,-126122
65.72,-126122
65.73,-126122
65.74,-126124
65.75,-126121
65.76,-126113
65.77,-126119
65.78,-126123
65.79,-126131
65.8,-126144
65.81,-126148
65.82,-126151
65.83,-126155
65.84,-126161
65.85,-126177
65.86,-126187
65.87,-126196
65.88,-126190
65.89,-126216
65.9,-126232
65.91,-126245
65.92,-126255
65.93,-126271
65.94,-126277
65.95,-126285
65.96,-126285
65.97,-126295
65.98,-126299
65.99,-126311
66,-126319
66.01,-126330
66.02,-126338
66.03,-126348
66.04,-126343
66.05,-126341
66.06,-126352
66.07,-126351
66.08,-126350
66.09,-126353
66.1,-126358
66.11,-126352
66.12,-126359
66.13,-126348
66.14,-126347
66.15,-126347
66.16,-126346
66.17,-126350
66.18,-126348
66.19,-126348
66.2,-126348
66.21,-126342
66.22,-126338
66.23,-126345
66.24,-126347
66.25,-126343
66.26,-126335
66.27,-126359
66.28,-126362
66.29,-126357
66.3,-126358
66.31,-126360
66.32,-126368
66.33,-126376
66.34,-126375
66.35,-126374
66.36,-126379
66.37,-126393
66.38,-126387
66.39,-126386
66.4,-126410
66.41,-126404
66.42,-126403
66.43,-126403
66.44,-126417
66.45,-126413
66.46,-126413
66.47,-126421
66.48,-126434
66.49,-126435
66.5,-126439
66.51,-126439
66.52,-126441
66.53,-126446
66.54,-126451
66.55,-126450
66.56,-126446
66.57,-126464
66.58,-126468
66.59,-126477
66.6,-126477
66.61,-126478
66.62,-126485
66.63,-126493
66.64,-126490
66.65,-126498
66.66,-126498
66.67,-126498
66.68,-126507
66.69,-126512
66.7,-126512
66.71,-126504
66.72,-126510
66.73,-126526
66.74,-126527
66.75,-126535
66.76,-126536
66.77,-126543
66.78,-126542
66.79,-126553
66.8,-126549
66.81,-126563
66.82,-126561
66.83,-126567
66.84,-126582
66.85,-126580
66.86,-126558
66.87,-126537
66.88,-126508
66.89,-126508
66.9,-126508
66.91,-126478
66.92,-126431
66.93,-126389
66.94,-126344
66.95,-126225
66.96,-126219
66.97,-126208
66.98,-126193
66.99,-126181
67,-126167
67.01,-126163
67.02,-126165
67.03,-126157
67.04,-126162
67.05,-126159
67.06,-126159
67.07,-126172
67.08,-126180
67.09,-126175
67.1,-126184
67.11,-126183
67.12,-126194
67.13,-126194
67.14,-126194
67.15,-126208
67.16,-126213
67.17,-126214
67.18,-126237
67.19,-126248
67.2,-126272
67.21,-126283
67.22,-126285
67.23,-126289
67.24,-126298
67.25,-126313
67.26,-126322
67.27,-126327
67.28,-126337
67.29,-126341
67.3,-126352
67.31,-126375
67.32,-126372
67.33,-126377
67.34,-126382
67.35,-126393
67.36,-126392
67.37,-126392
67.38,-126394
67.39,-126395
67.4,-126401
67.41,-126398
67.42,-126390
67.43,-126400
67.44,-126402
67.45,-126402
67.46,-126390
67.47,-126390
67.48,-126395
67.49,-126390
67.5,-126389
67.51,-126390
67.52,-126384
67.53,-126403
67.54,-126400
67.55,-126396
67.56,-126399
67.57,-126410
67.58,-126402
67.59,-126399
67.6,-126399
67.61,-126399
67.62,-126410
67.63,-126417
67.64,-126419
67.65,-126419
67.66,-126426
67.67,-126435
67.68,-126429
67.69,-126442
67.7,-126438
67.71,-126455
67.72,-126455
67.73,-126454
67.74,-126456
67.75,-126467
67.76,-126471
67.77,-126467
67.78,-126467
67.79,-126480
67.8,-126493
67.81,-126491
67.82,-126494
67.83,-126494
67.84,-126494
67.85,-126492
67.86,-126502
67.87,-126508
67.88,-126516
67.89,-126517
67.9,-126518
67.91,-126530
67.92,-126535
67.93,-126534
67.94,-126542
67.95,-126542
67.96,-126541
67.97,-126546
67.98,-126544
67.99,-126561
68,-126561
68.01,-126566
68.02,-126566
68.03,-126576
68.04,-126585
68.05,-126588
68.06,-126591
68.07,-126591
68.08,-126591
68.09,-126596
68.1,-126593
68.11,-126596
68.12,-126603
68.13,-126644
68.14,-126649
68.15,-126659
68.16,-126634
68.17,-126619
68.18,-126595
68.19,-126558
68.2,-126512
68.21,-126461
68.22,-126427
68.23,-126383
68.24,-126350
68.25,-126308
68.26,-126289
68.27,-126270
68.28,-126255
68.29,-126237
68.3,-126245
68.31,-126245
68.32,-126245
68.33,-126224
68.34,-126221
68.35,-126224
68.36,-126208
68.37,-126209
68.38,-126214
68.39,-126216
68.4,-126222
68.41,-126218
68.42,-126222
68.43,-126233
68.44,-126242
68.45,-126252
68.46,-126257
68.47,-126271
68.48,-126277
68.49,-126289
68.5,-126294
68.51,-126299
68.52,-126322
68.53,-126320
68.54,-126327
68.55,-126327
68.56,-126346
68.57,-126347
68.58,-126358
68.59,-126376
68.6,-126386
68.61,-126398
68.62,-126405
68.63,-126420
68.64,-126414
68.65,-126414
68.66,-126429
68.67,-126429
68.68,-126440
68.69,-126443
68.7,-126441
68.71,-126434
68.72,-126438
68.73,-126438
68.74,-126441
68.75,-126431
68.76,-126437
68.77,-126433
68.78,-126433
68.79,-126433
68.8,-126429
68.81,-126432
68.82,-126428
68.83,-126426
68.84,-126429
68.85,-126433
68.86,-126421
68.87,-126434
68.88,-126434
68.89,-126443
68.9,-126433
68.91,-126433
68.92,-126444
68.93,-126442
68.94,-126439
68.95,-126447
68.96,-126444
68.97,-126457
68.98,-126461
68.99,-126462
69,-126468
69.01,-126471
69.02,-126471
69.03,-126471
69.04,-126469
69.05,-126478
69.06,-126480
69.07,-126500
69.08,-126512
69.09,-126507
69.1,-126509
69.11,-126517
69.12,-126518
69.13,-126524
69.14,-126529
69.15,-126535
69.16,-126533
69.17,-126541
69.18,-126549
69.19,-126552
69.2,-126550
69.21,-126553
69.22,-126553
69.23,-126567
69.24,-126575
69.25,-126566
69.26,-126566
69.27,-126566
69.28,-126578
69.29,-126576
69.3,-126581
69.31,-126590
69.32,-126599
69.33,-126599
69.34,-126596
69.35,-126611
69.36,-126613
69.37,-126627
69.38,-126629
69.39,-126629
69.4,-126633
69.41,-126648
69.42,-126646
69.43,-126651
69.44,-126675
69.45,-126678
69.46,-126671
69.47,-126648
69.48,-126617
69.49,-126589
69.5,-126589
69.51,-126555
69.52,-126513
69.53,-126472
69.54,-126340
69.55,-126313
69.56,-126303
69.57,-126286
69.58,-126281
69.59,-126268
69.6,-126257
69.61,-126246
69.62,-126240
69.63,-126238
69.64,-126240
69.65,-126237
69.66,-126237
69.67,-126243
69.68,-126247
69.69,-126255
69.7,-126260
69.71,-126262
69.72,-126262
69.73,-126262
69.74,-126276
69.75,-126271
69.76,-126283
69.77,-126288
69.78,-126324
69.79,-126324
69.8,-126328
69.81,-126349
69.82,-126357
69.83,-126355
69.84,-126371
69.85,-126375
69.86,-126389
69.87,-126389
69.88,-126404
69.89,-126416
69.9,-126424
69.91,-126434
69.92,-126438
69.93,-126442
69.94,-126433
69.95,-126443
69.96,-126443
69.97,-126443
69.98,-126443
69.99,-126448
70,-126452
70.01,-126448
70.02,-126456
70.03,-126465
70.04,-126462
70.05,-126446
70.06,-126455
70.07,-126454
70.08,-126452
70.09,-126451
70.1,-126445
70.11,-126443
70.12,-126445
70.13,-126436
70.14,-126443
70.15,-126439
70.16,-126451
70.17,-126448
70.18,-126455
70.19,-126455
70.2,-126455
70.21,-126457
70.22,-126448
70.23,-126461
70.24,-126466
70.25,-126464
70.26,-126473
70.27,-126480
70.28,-126477
70.29,-126483
70.3,-126498
70.31,-126489
70.32,-126499
70.33,-126494
70.34,-126507
70.35,-126505
70.36,-126516
70.37,-126522
70.38,-126523
70.39,-126532
70.4,-126532
70.41,-126541
70.42,-126546
70.43,-126546
70.44,-126555
70.45,-126544
70.46,-126556
70.47,-126558
70.48,-126565
70.49,-126570
70.5,-126578
70.51,-126581
70.52,-126579
70.53,-126589
70.54,-126587
70.55,-126588
70.56,-126592
70.57,-126591
70.58,-126591
70.59,-126606
70.6,-126603
70.61,-126614
70.62,-126616
70.63,-126617
70.64,-126620
70.65,-126623
70.66,-126629
70.67,-126629
70.68,-126629
70.69,-126627
70.7,-126637
70.71,-126647
70.72,-126665
70.73,-126652
70.74,-126633
70.75,-126621
70.76,-126586
70.77,-126558
70.78,-126508
70.79,-126470
70.8,-126426
70.81,-126403
70.82,-126378
70.83,-126354
70.84,-126336
70.85,-126304
70.86,-126300
70.87,-126289
70.88,-126280
70.89,-126267
70.9,-126266
70.91,-126266
70.92,-126266
70.93,-126253
70.94,-126253
70.95,-126251
70.96,-126257
70.97,-126262
70.98,-126278
70.99,-126283
71,-126291
71.01,-126297
71.02,-126301
71.03,-126309
71.04,-126316
71.05,-126335
71.06,-126335
71.07,-126335
71.08,-126344
71.09,-126347
71.1,-126371
71.11,-126375
71.12,-126379
71.13,-126397
71.14,-126397
71.15,-126397
71.16,-126396
71.17,-126417
71.18,-126430
71.19,-126431
71.2,-126437
71.21,-126442
71.22,-126466
71.23,-126469
71.24,-126470
71.25,-126474
71.26,-126475
71.27,-126475
71.28,-126481
71.29,-126476
71.3,-126472
71.31,-126479
71.32,-126485
71.33,-126476
71.34,-126465
71.35,-126469
71.36,-126473
71.37,-126473
71.38,-126473
71.39,-126473
71.4,-126460
71.41,-126467
71.42,-126467
71.43,-126477
71.44,-126468
71.45,-126468
71.46,-126483
71.47,-126469
71.48,-126479
71.49,-126482
71.5,-126475
71.51,-126477
71.52,-126484
71.53,-126489
71.54,-126484
71.55,-126496
71.56,-126505
71.57,-126503
71.58,-126509
71.59,-126508
71.6,-126510
71.61,-126513
71.62,-126513
71.63,-126520
71.64,-126522
71.65,-126521
71.66,-126538
71.67,-126541
71.68,-126547
71.69,-126555
71.7,-126548
71.71,-126559
71.72,-126559
71.73,-126568
71.74,-126559
71.75,-126577
71.76,-126572
71.77,-126588
71.78,-126576
71.79,-126586
71.8,-126588
71.81,-126590
71.82,-126594
71.83,-126597
71.84,-126601
71.85,-126601
71.86,-126601
71.87,-126606
71.88,-126613
71.89,-126610
71.9,-126614
71.91,-126634
71.92,-126623
71.93,-126626
71.94,-126639
71.95,-126624
71.96,-126609
71.97,-126602
71.98,-126564
71.99,-126532
72,-126502
72.01,-126468
72.02,-126433
72.03,-126370
72.04,-126349
72.05,-126343
72.06,-126330
72.07,-126314
72.08,-126305
72.09,-126305
72.1,-126305
72.11,-126297
72.12,-126297
72.13,-126290
72.14,-126265
72.15,-126275
72.16,-126240
72.17,-126240
72.18,-126240
72.19,-126257
72.2,-126246
72.21,-126251
72.22,-126238
72.23,-126247
72.24,-126259
72.25,-126265
72.26,-126277
72.27,-126285
72.28,-126293
72.29,-126287
72.3,-126314
72.31,-126317
72.32,-126326
72.33,-126337
72.34,-126344
72.35,-126361
72.36,-126361
72.37,-126370
72.38,-126398
72.39,-126421
72.4,-126431
72.41,-126429
72.42,-126446
72.43,-126450
72.44,-126454
72.45,-126451
72.46,-126458
72.47,-126463
72.48,-126463
72.49,-126467
72.5,-126460
72.51,-126469
72.52,-126472
72.53,-126467
72.54,-126468
72.55,-126456
72.56,-126463
72.57,-126461
72.58,-126457
72.59,-126457
72.6,-126457
72.61,-126455
72.62,-126448
72.63,-126460
72.64,-126457
72.65,-126466
72.66,-126466
72.67,-126464
72.68,-126459
72.69,-126462
72.7,-126461
72.71,-126468
72.72,-126472
72.73,-126467
72.74,-126465
72.75,-126473
72.76,-126482
72.77,-126489
72.78,-126478
72.79,-126485
72.8,-126501
72.81,-126505
72.82,-126503
72.83,-126503
72.84,-126501
72.85,-126508
72.86,-126523
72.87,-126523
72.88,-126523
72.89,-126529
72.9,-126533
72.91,-126543
72.92,-126551
72.93,-126543
72.94,-126552
72.95,-126551
72.96,-126546
72.97,-126554
72.98,-126551
72.99,-126563
73,-126571
73.01,-126576
73.02,-126566
73.03,-126579
73.04,-126573
73.05,-126589
73.06,-126589
73.07,-126589
73.08,-126586
73.09,-126589
73.1,-126591
73.11,-126591
73.12,-126596
73.13,-126593
73.14,-126585
73.15,-126583
73.16,-126568
73.17,-126552
73.18,-126523
73.19,-126486
73.2,-126450
73.21,-126425
73.22,-126401
73.23,-126377
73.24,-126342
73.25,-126342
73.26,-126332
73.27,-126332
73.28,-126313
73.29,-126301
73.3,-126301
73.31,-126282
73.32,-126270
73.33,-126260
73.34,-126227
73.35,-126237
73.36,-126222
73.37,-126236
73.38,-126233
73.39,-126238
73.4,-126234
73.41,-126232
73.42,-126241
73.43,-126255
73.44,-126250
73.45,-126262
73.46,-126273
73.47,-126282
73.48,-126293
73.49,-126308
73.5,-126316
73.51,-126327
73.52,-126333
73.53,-126333
73.54,-126333
73.55,-126345
73.56,-126350
73.57,-126354
73.58,-126371
73.59,-126398
73.6,-126419
73.61,-126421
73.62,-126434
73.63,-126435
73.64,-126442
73.65,-126436
73.66,-126441
73.67,-126452
73.68,-126454
73.69,-126449
73.7,-126455
73.71,-126448
73.72,-126453
73.73,-126446
73.74,-126448
73.75,-126445
73.76,-126438
73.77,-126438
73.78,-126437
73.79,-126441
73.8,-126437
73.81,-126433
73.82,-126445
73.83,-126438
73.84,-126442
73.85,-126448
73.86,-126439
73.87,-126440
73.88,-126451
73.89,-126446
73.9,-126449
73.91,-126459
73.92,-126450
73.93,-126459
73.94,-126469
73.95,-126468
73.96,-126474
73.97,-126482
73.98,-126476
73.99,-126480
74,-126480
74.01,-126480
74.02,-126484
74.03,-126487
74.04,-126494
74.05,-126494
74.06,-126516
74.07,-126510
74.08,-126519
74.09,-126526
74.1,-126527
74.11,-126521
74.12,-126526
74.13,-126537
74.14,-126532
74.15,-126535
74.16,-126540
74.17,-126548
74.18,-126542
74.19,-126542
74.2,-126552
74.21,-126558
74.22,-126565
74.23,-126574
74.24,-126574
74.25,-126572
74.26,-126571
74.27,-126583
74.28,-126580
74.29,-126586
74.3,-126580
74.31,-126571
74.32,-126557
74.33,-126532
74.34,-126532
74.35,-126532
74.36,-126503
74.37,-126479
74.38,-126444
74.39,-126418
74.4,-126403
74.41,-126376
74.42,-126351
74.43,-126329
74.44,-126304
74.45,-126301
74.46,-126276
74.47,-126276
74.48,-126276
74.49,-126277
74.5,-126263
74.51,-126245
74.52,-126243
74.53,-126213
74.54,-126213
74.55,-126220
74.56,-126222
74.57,-126216
74.58,-126227
74.59,-126238
74.6,-126242
74.61,-126243
74.62,-126266
74.63,-126266
74.64,-126271
74.65,-126300
74.66,-126298
74.67,-126316
74.68,-126327
74.69,-126342
74.7,-126346
74.71,-126346
74.72,-126346
74.73,-126355
74.74,-126356
74.75,-126372
74.76,-126382
74.77,-126396
74.78,-126409
74.79,-126415
74.8,-126430
74.81,-126439
74.82,-126432
74.83,-126425
74.84,-126442
74.85,-126447
74.86,-126444
74.87,-126446
74.88,-126447
74.89,-126433
74.9,-126437
74.91,-126430
74.92,-126429
74.93,-126430
74.94,-126429
74.95,-126429
74.96,-126424
74.97,-126427
74.98,-126435
74.99,-126419
75,-126418
75.01,-126434
75.02,-126435
75.03,-126434
75.04,-126431
75.05,-126436
75.06,-126436
75.07,-126434
75.08,-126440
75.09,-126440
75.1,-126449
75.11,-126446
75.12,-126460
75.13,-126459
75.14,-126466
75.15,-126469
75.16,-126470
75.17,-126484
75.18,-126484
75.19,-126478
75.2,-126481
75.21,-126482
75.22,-126486
75.23,-126486
75.24,-126499
75.25,-126493
75.26,-126508
75.27,-126513
75.28,-126511
75.29,-126506
75.3,-126517
75.31,-126525
75.32,-126514
75.33,-126530
75.34,-126526
75.35,-126531
75.36,-126543
75.37,-126533
75.38,-126549
75.39,-126544
75.4,-126551
75.41,-126551
75.42,-126551
75.43,-126552
75.44,-126552
75.45,-126552
75.46,-126559
75.47,-126562
75.48,-126562
75.49,-126562
75.5,-126561
75.51,-126541
75.52,-126522
75.53,-126489
75.54,-126479
75.55,-126441
75.56,-126401
75.57,-126391
75.58,-126358
75.59,-126346
75.6,-126334
75.61,-126307
75.62,-126283
75.63,-126270
75.64,-126261
75.65,-126261
75.66,-126261
75.67,-126254
75.68,-126239
75.69,-126229
75.7,-126216
75.71,-126222
75.72,-126230
75.73,-126226
75.74,-126234
75.75,-126246
75.76,-126247
75.77,-126248
75.78,-126258
75.79,-126266
75.8,-126277
75.81,-126284
75.82,-126293
75.83,-126309
75.84,-126321
75.85,-126333
75.86,-126342
75.87,-126345
75.88,-126359
75.89,-126359
75.9,-126363
75.91,-126372
75.92,-126380
75.93,-126402
75.94,-126407
75.95,-126417
75.96,-126421
75.97,-126437
75.98,-126433
75.99,-126436
76,-126444
76.01,-126449
76.02,-126437
76.03,-126447
76.04,-126438
76.05,-126443
76.06,-126431
76.07,-126434
76.08,-126428
76.09,-126436
76.1,-126426
76.11,-126424
76.12,-126424
76.13,-126424
76.14,-126423
76.15,-126436
76.16,-126422
76.17,-126438
76.18,-126420
76.19,-126425
76.2,-126426
76.21,-126436
76.22,-126434
76.23,-126433
76.24,-126429
76.25,-126445
76.26,-126446
76.27,-126452
76.28,-126447
76.29,-126456
76.3,-126453
76.31,-126464
76.32,-126471
76.33,-126467
76.34,-126478
76.35,-126478
76.36,-126478
76.37,-126484
76.38,-126487
76.39,-126488
76.4,-126490
76.41,-126499
76.42,-126506
76.43,-126509
76.44,-126514
76.45,-126522
76.46,-126524
76.47,-126521
76.48,-126533
76.49,-126530
76.5,-126530
76.51,-126527
76.52,-126527
76.53,-126527
76.54,-126542
76.55,-126536
76.56,-126549
76.57,-126548
76.58,-126548
76.59,-126548
76.6,-126562
76.61,-126558
76.62,-126564
76.63,-126559
76.64,-126564
76.65,-126572
76.66,-126571
76.67,-126577
76.68,-126593
76.69,-126587
76.7,-126594
76.71,-126593
76.72,-126596
76.73,-126597
76.74,-126596
76.75,-126583
76.76,-126535
76.77,-126502
76.78,-126460
76.79,-126438
76.8,-126407
76.81,-126368
76.82,-126368
76.83,-126352
76.84,-126338
76.85,-126315
76.86,-126315
76.87,-126313
76.88,-126288
76.89,-126251
76.9,-126245
76.91,-126252
76.92,-126243
76.93,-126241
76.94,-126240
76.95,-126241
76.96,-126248
76.97,-126243
76.98,-126256
76.99,-126253
77,-126270
77.01,-126282
77.02,-126280
77.03,-126295
77.04,-126307
77.05,-126314
77.06,-126314
77.07,-126325
77.08,-126325
77.09,-126332
77.1,-126347
77.11,-126356
77.12,-126368
77.13,-126382
77.14,-126403
77.15,-126416
77.16,-126423
77.17,-126426
77.18,-126436
77.19,-126440
77.2,-126447
77.21,-126449
77.22,-126449
77.23,-126453
77.24,-126470
77.25,-126468
77.26,-126466
77.27,-126472
77.28,-126463
77.29,-126470
77.3,-126467
77.31,-126469
77.32,-126469
77.33,-126469
77.34,-126461
77.35,-126461
77.36,-126453
77.37,-126446
77.38,-126453
77.39,-126451
77.4,-126458
77.41,-126457
77.42,-126455
77.43,-126450
77.44,-126462
77.45,-126458
77.46,-126468
77.47,-126466
77.48,-126474
77.49,-126468
77.5,-126477
77.51,-126479
77.52,-126478
77.53,-126483
77.54,-126490
77.55,-126489
77.56,-126489
77.57,-126494
77.58,-126497
77.59,-126509
77.6,-126517
77.61,-126516
77.62,-126527
77.63,-126527
77.64,-126527
77.65,-126526
77.66,-126532
77.67,-126531
77.68,-126531
77.69,-126531
77.7,-126543
77.71,-126540
77.72,-126549
77.73,-126554
77.74,-126548
77.75,-126558
77.76,-126567
77.77,-126561
77.78,-126574
77.79,-126577
77.8,-126577
77.81,-126577
77.82,-126581
77.83,-126595
77.84,-126593
77.85,-126605
77.86,-126594
77.87,-126603
77.88,-126613
77.89,-126619
77.9,-126615
77.91,-126628
77.92,-126620
77.93,-126627
77.94,-126645
77.95,-126640
77.96,-126635
77.97,-126628
77.98,-126585
77.99,-126543
78,-126515
78.01,-126479
78.02,-126437
78.03,-126400
78.04,-126400
78.05,-126328
78.06,-126328
78.07,-126323
78.08,-126307
78.09,-126298
78.1,-126290
78.11,-126279
78.12,-126270
78.13,-126264
78.14,-126257
78.15,-126252
78.16,-126249
78.17,-126246
78.18,-126239
78.19,-126250
78.2,-126259
78.21,-126249
78.22,-126257
78.23,-126276
78.24,-126278
78.25,-126284
78.26,-126292
78.27,-126309
78.28,-126309
78.29,-126314
78.3,-126337
78.31,-126374
78.32,-126373
78.33,-126390
78.34,-126398
78.35,-126409
78.36,-126420
78.37,-126427
78.38,-126429
78.39,-126445
78.4,-126433
78.41,-126452
78.42,-126459
78.43,-126462
78.44,-126461
78.45,-126467
78.46,-126468
78.47,-126480
78.48,-126472
78.49,-126480
78.5,-126470
78.51,-126470
78.52,-126470
78.53,-126465
78.54,-126475
78.55,-126477
78.56,-126466
78.57,-126474
78.58,-126466
78.59,-126466
78.6,-126475
78.61,-126467
78.62,-126458
78.63,-126466
78.64,-126465
78.65,-126468
78.66,-126473
78.67,-126468
78.68,-126476
78.69,-126470
78.7,-126484
78.71,-126480
78.72,-126480
78.73,-126477
78.74,-126477
78.75,-126477
78.76,-126487
78.77,-126483
78.78,-126487
78.79,-126492
78.8,-126503
78.81,-126513
78.82,-126511
78.83,-126505
78.84,-126525
78.85,-126518
78.86,-126523
78.87,-126520
78.88,-126532
78.89,-126537
78.9,-126542
78.91,-126539
78.92,-126551
78.93,-126551
78.94,-126563
78.95,-126561
78.96,-126571
78.97,-126573
78.98,-126573
78.99,-126562
79,-126578
79.01,-126583
79.02,-126589
79.03,-126599
79.04,-126599
79.05,-126607
79.06,-126609
79.07,-126611
79.08,-126612
79.09,-126622
79.1,-126622
79.11,-126629
79.12,-126636
79.13,-126637
79.14,-126641
79.15,-126652
79.16,-126665
79.17,-126663
79.18,-126674
79.19,-126660
79.2,-126654
79.21,-126654
79.22,-126654
79.23,-126640
79.24,-126603
79.25,-126566
79.26,-126526
79.27,-126415
79.28,-126384
79.29,-126357
79.3,-126341
79.31,-126319
79.32,-126311
79.33,-126293
79.34,-126285
79.35,-126283
79.36,-126264
79.37,-126263
79.38,-126255
79.39,-126242
79.4,-126244
79.41,-126246
79.42,-126238
79.43,-126239
79.44,-126252
79.45,-126252
79.46,-126252
79.47,-126252
79.48,-126252
79.49,-126261
79.5,-126263
79.51,-126276
79.52,-126283
79.53,-126298
79.54,-126313
79.55,-126321
79.56,-126328
79.57,-126333
79.58,-126344
79.59,-126356
79.6,-126359
79.61,-126371
79.62,-126389
79.63,-126399
79.64,-126408
79.65,-126419
79.66,-126433
79.67,-126437
79.68,-126439
79.69,-126456
79.7,-126454
79.71,-126453
79.72,-126453
79.73,-126453
79.74,-126458
79.75,-126461
79.76,-126465
79.77,-126465
79.78,-126462
79.79,-126448
79.8,-126455
79.81,-126457
79.82,-126461
79.83,-126461
79.84,-126460
79.85,-126457
79.86,-126464
79.87,-126460
79.88,-126455
79.89,-126449
79.9,-126461
79.91,-126456
79.92,-126448
79.93,-126464
79.94,-126470
79.95,-126470
79.96,-126470
79.97,-126460
79.98,-126464
79.99,-126479
80,-126482
80.01,-126482
80.02,-126489
80.03,-126484
80.04,-126483
80.05,-126497
80.06,-126495
80.07,-126500
80.08,-126497
80.09,-126502
80.1,-126509
80.11,-126516
80.12,-126520
80.13,-126521
80.14,-126531
80.15,-126535
80.16,-126535
80.17,-126543
80.18,-126545
80.19,-126545
80.2,-126548
80.21,-126555
80.22,-126574
80.23,-126573
80.24,-126575
80.25,-126578
80.26,-126583
80.27,-126578
80.28,-126582
80.29,-126583
80.3,-126587
80.31,-126590
80.32,-126603
80.33,-126602
80.34,-126601
80.35,-126606
80.36,-126606
80.37,-126618
80.38,-126618
80.39,-126624
80.4,-126632
80.41,-126631
80.42,-126631
80.43,-126631
80.44,-126639
80.45,-126648
80.46,-126638
80.47,-126612
80.48,-126583
80.49,-126536
80.5,-126497
80.51,-126457
80.52,-126423
80.53,-126380
80.54,-126363
80.55,-126340
80.56,-126322
80.57,-126304
80.58,-126283
80.59,-126278
80.6,-126257
80.61,-126244
80.62,-126231
80.63,-126228
80.64,-126231
80.65,-126228
80.66,-126228
80.67,-126228
80.68,-126219
80.69,-126223
80.7,-126226
80.71,-126247
80.72,-126257
80.73,-126258
80.74,-126265
80.75,-126279
80.76,-126283
80.77,-126287
80.78,-126296
80.79,-126318
80.8,-126316
80.81,-126334
80.82,-126333
80.83,-126349
80.84,-126365
80.85,-126375
80.86,-126382
80.87,-126392
80.88,-126398
80.89,-126405
80.9,-126405
80.91,-126405
80.92,-126419
80.93,-126419
80.94,-126418
80.95,-126417
80.96,-126422
80.97,-126423
80.98,-126438
80.99,-126428
81,-126444
81.01,-126437
81.02,-126435
81.03,-126436
81.04,-126437
81.05,-126426
81.06,-126431
81.07,-126441
81.08,-126430
81.09,-126426
81.1,-126430
81.11,-126438
81.12,-126430
81.13,-126430
81.14,-126430
81.15,-126431
81.16,-126431
81.17,-126428
81.18,-126430
81.19,-126442
81.2,-126441
81.21,-126433
81.22,-126442
81.23,-126445
81.24,-126450
81.25,-126453
81.26,-126459
81.27,-126465
81.28,-126468
81.29,-126464
81.3,-126476
81.31,-126483
81.32,-126476
81.33,-126481
81.34,-126488
81.35,-126497
81.36,-126498
81.37,-126498
81.38,-126498
81.39,-126497
81.4,-126506
81.41,-126511
81.42,-126531
81.43,-126527
81.44,-126528
81.45,-126537
81.46,-126537
81.47,-126545
81.48,-126537
81.49,-126542
81.5,-126552
81.51,-126551
81.52,-126547
81.53,-126555
81.54,-126567
81.55,-126570
81.56,-126570
81.57,-126576
81.58,-126577
81.59,-126578
81.6,-126578
81.61,-126578
81.62,-126580
81.63,-126585
81.64,-126591
81.65,-126597
81.66,-126612
81.67,-126619
81.68,-126621
81.69,-126626
81.7,-126613
81.71,-126604
81.72,-126588
81.73,-126557
81.74,-126523
81.75,-126490
81.76,-126449
81.77,-126408
81.78,-126349
81.79,-126319
81.8,-126300
81.81,-126285
81.82,-126271
81.83,-126257
81.84,-126257
81.85,-126257
81.86,-126248
81.87,-126241
81.88,-126221
81.89,-126218
81.9,-126190
81.91,-126199
81.92,-126199
81.93,-126199
81.94,-126203
81.95,-126208
81.96,-126208
81.97,-126210
81.98,-126226
81.99,-126226
82,-126237
82.01,-126237
82.02,-126239
82.03,-126264
82.04,-126251
82.05,-126273
82.06,-126283
82.07,-126283
82.08,-126283
82.09,-126292
82.1,-126298
82.11,-126305
82.12,-126310
82.13,-126330
82.14,-126336
82.15,-126353
82.16,-126364
82.17,-126376
82.18,-126379
82.19,-126384
82.2,-126386
82.21,-126394
82.22,-126397
82.23,-126385
82.24,-126408
82.25,-126404
82.26,-126410
82.27,-126408
82.28,-126403
82.29,-126401
82.3,-126406
82.31,-126406
82.32,-126406
82.33,-126405
82.34,-126401
82.35,-126402
82.36,-126396
82.37,-126386
82.38,-126395
82.39,-126396
82.4,-126395
82.41,-126397
82.42,-126397
82.43,-126397
82.44,-126403
82.45,-126395
82.46,-126403
82.47,-126409
82.48,-126407
82.49,-126410
82.5,-126417
82.51,-126424
82.52,-126421
82.53,-126427
82.54,-126427
82.55,-126427
82.56,-126431
82.57,-126438
82.58,-126445
82.59,-126442
82.6,-126454
82.61,-126456
82.62,-126458
82.63,-126460
82.64,-126471
82.65,-126472
82.66,-126476
82.67,-126482
82.68,-126488
82.69,-126484
82.7,-126494
82.71,-126498
82.72,-126502
82.73,-126501
82.74,-126512
82.75,-126503
82.76,-126516
82.77,-126520
82.78,-126520
82.79,-126520
82.8,-126523
82.81,-126533
82.82,-126530
82.83,-126534
82.84,-126526
82.85,-126545
82.86,-126550
82.87,-126542
82.88,-126546
82.89,-126552
82.9,-126551
82.91,-126560
82.92,-126554
82.93,-126574
82.94,-126575
82.95,-126567
82.96,-126561
82.97,-126556
82.98,-126532
82.99,-126501
83,-126470
83.01,-126422
83.02,-126422
83.03,-126386
83.04,-126350
83.05,-126323
83.06,-126298
83.07,-126240
83.08,-126236
83.09,-126217
83.1,-126217
83.11,-126217
83.12,-126211
83.13,-126186
83.14,-126170
83.15,-126170
83.16,-126163
83.17,-126160
83.18,-126163
83.19,-126162
83.2,-126153
83.21,-126156
83.22,-126157
83.23,-126167
83.24,-126178
83.25,-126178
83.26,-126178
83.27,-126186
83.28,-126186
83.29,-126191
83.3,-126201
83.31,-126206
83.32,-126240
83.33,-126247
83.34,-126252
83.35,-126272
83.36,-126268
83.37,-126279
83.38,-126296
83.39,-126307
83.4,-126314
83.41,-126318
83.42,-126322
83.43,-126322
83.44,-126331
83.45,-126347
83.46,-126341
83.47,-126344
83.48,-126335
83.49,-126348
83.5,-126356
83.51,-126352
83.52,-126352
83.53,-126352
83.54,-126353
83.55,-126342
83.56,-126348
83.57,-126349
83.58,-126349
83.59,-126344
83.6,-126345
83.61,-126351
83.62,-126348
83.63,-126345
83.64,-126351
83.65,-126344
83.66,-126351
83.67,-126339
83.68,-126346
83.69,-126342
83.7,-126361
83.71,-126363
83.72,-126356
83.73,-126359
83.74,-126373
83.75,-126377
83.76,-126377
83.77,-126376
83.78,-126375
83.79,-126383
83.8,-126388
83.81,-126389
83.82,-126392
83.83,-126401
83.84,-126397
83.85,-126406
83.86,-126408
83.87,-126407
83.88,-126410
83.89,-126419
83.9,-126414
83.91,-126419
83.92,-126425
83.93,-126433
83.94,-126430
83.95,-126442
83.96,-126441
83.97,-126444
83.98,-126456
83.99,-126456
84,-126456
84.01,-126455
84.02,-126456
84.03,-126458
84.04,-126473
84.05,-126465
84.06,-126472
84.07,-126474
84.08,-126479
84.09,-126484
84.1,-126485
84.11,-126485
84.12,-126486
84.13,-126502
84.14,-126500
84.15,-126495
84.16,-126512
84.17,-126509
84.18,-126501
84.19,-126508
84.2,-126508
84.21,-126514
84.22,-126511
84.23,-126511
84.24,-126511
84.25,-126518
84.26,-126518
84.27,-126503
84.28,-126428
84.29,-126399
84.3,-126359
84.31,-126323
84.32,-126290
84.33,-126267
84.34,-126245
84.35,-126227
84.36,-126214
84.37,-126202
84.38,-126187
84.39,-126173
84.4,-126164
84.41,-126148
84.42,-126139
84.43,-126117
84.44,-126125
84.45,-126112
84.46,-126115
84.47,-126138
84.48,-126157
84.49,-126163
84.5,-126163
84.51,-126163
84.52,-126176
84.53,-126191
84.54,-126192
84.55,-126191
84.56,-126213
84.57,-126222
84.58,-126222
84.59,-126237
84.6,-126242
84.61,-126253
84.62,-126256
84.63,-126267
84.64,-126276
84.65,-126287
84.66,-126299
84.67,-126304
84.68,-126314
84.69,-126315
84.7,-126313
84.71,-126323
84.72,-126327
84.73,-126329
84.74,-126318
84.75,-126318
84.76,-126318
84.77,-126330
84.78,-126325
84.79,-126327
84.8,-126324
84.81,-126325
84.82,-126338
84.83,-126327
84.84,-126322
84.85,-126318
84.86,-126323
84.87,-126316
84.88,-126314
84.89,-126327
84.9,-126321
84.91,-126322
84.92,-126327
84.93,-126326
84.94,-126321
84.95,-126331
84.96,-126335
84.97,-126335
84.98,-126341
84.99,-126341
85,-126354
85.01,-126358
85.02,-126359
85.03,-126355
85.04,-126362
85.05,-126362
85.06,-126373
85.07,-126376
85.08,-126377
85.09,-126387
85.1,-126379
85.11,-126392
85.12,-126394
85.13,-126388
85.14,-126404
85.15,-126397
85.16,-126404
85.17,-126412
85.18,-126416
85.19,-126419
85.2,-126421
85.21,-126424
85.22,-126442
85.23,-126442
85.24,-126442
85.25,-126442
85.26,-126447
85.27,-126455
85.28,-126448
85.29,-126458
85.3,-126459
85.31,-126459
85.32,-126458
85.33,-126462
85.34,-126466
85.35,-126465
85.36,-126466
85.37,-126463
85.38,-126472
85.39,-126471
85.4,-126472
85.41,-126489
85.42,-126487
85.43,-126496
85.44,-126491
85.45,-126495
85.46,-126489
85.47,-126489
85.48,-126489
85.49,-126432
85.5,-126432
85.51,-126401
85.52,-126364
85.53,-126332
85.54,-126308
85.55,-126289
85.56,-126263
85.57,-126244
85.58,-126218
85.59,-126204
85.6,-126194
85.61,-126177
85.62,-126163
85.63,-126157
85.64,-126131
85.65,-126128
85.66,-126113
85.67,-126116
85.68,-126111
85.69,-126102
85.7,-126109
85.71,-126102
85.72,-126120
85.73,-126126
85.74,-126126
85.75,-126126
85.76,-126142
85.77,-126142
85.78,-126142
85.79,-126152
85.8,-126159
85.81,-126163
85.82,-126175
85.83,-126177
85.84,-126194
85.85,-126206
85.86,-126209
85.87,-126227
85.88,-126229
85.89,-126238
85.9,-126249
85.91,-126260
85.92,-126259
85.93,-126286
85.94,-126291
85.95,-126297
85.96,-126296
85.97,-126315
85.98,-126310
85.99,-126324
86,-126322
86.01,-126322
86.02,-126322
86.03,-126305
86.04,-126316
86.05,-126308
86.06,-126320
86.07,-126315
86.08,-126311
86.09,-126313
86.1,-126309
86.11,-126308
86.12,-126308
86.13,-126311
86.14,-126314
86.15,-126299
86.16,-126314
86.17,-126307
86.18,-126316
86.19,-126307
86.2,-126318
86.21,-126322
86.22,-126317
86.23,-126330
86.24,-126332
86.25,-126332
86.26,-126335
86.27,-126338
86.28,-126347
86.29,-126349
86.3,-126347
86.31,-126356
86.32,-126347
86.33,-126361
86.34,-126363
86.35,-126360
86.36,-126370
86.37,-126380
86.38,-126381
86.39,-126387
86.4,-126385
86.41,-126385
86.42,-126385
86.43,-126392
86.44,-126406
86.45,-126408
86.46,-126414
86.47,-126418
86.48,-126418
86.49,-126418
86.5,-126423
86.51,-126426
86.52,-126433
86.53,-126430
86.54,-126437
86.55,-126446
86.56,-126444
86.57,-126447
86.58,-126449
86.59,-126443
86.6,-126453
86.61,-126461
86.62,-126448
86.63,-126464
86.64,-126467
86.65,-126463
86.66,-126469
86.67,-126475
86.68,-126492
86.69,-126489
86.7,-126476
86.71,-126471
86.72,-126421
86.73,-126421
86.74,-126377
86.75,-126349
86.76,-126324
86.77,-126296
86.78,-126276
86.79,-126248
86.8,-126232
86.81,-126215
86.82,-126204
86.83,-126191
86.84,-126170
86.85,-126149
86.86,-126134
86.87,-126119
86.88,-126117
86.89,-126099
86.9,-126086
86.91,-126081
86.92,-126086
86.93,-126087
86.94,-126089
86.95,-126090
86.96,-126090
86.97,-126090
86.98,-126097
86.99,-126104
87,-126123
87.01,-126128
87.02,-126146
87.03,-126148
87.04,-126152
87.05,-126168
87.06,-126172
87.07,-126185
87.08,-126184
87.09,-126203
87.1,-126198
87.11,-126214
87.12,-126234
87.13,-126240
