Sampling Rate : 125Hz,Duration : 20 Minutes 
Time,PPG
0,0.410557185
0.008,0.400782014
0.016,0.391006843
0.024,0.382209189
0.032,0.372434018
0.04,0.363636364
0.048,0.355816227
0.056,0.348973607
0.064,0.344086022
0.072,0.339198436
0.08,0.335288368
0.088,0.330400782
0.096,0.325513196
0.104,0.320625611
0.112,0.316715543
0.12,0.311827957
0.128,0.307917889
0.136,0.30400782
0.144,0.301075269
0.152,0.298142717
0.16,0.296187683
0.168,0.295210166
0.176,0.293255132
0.184,0.291300098
0.192,0.289345064
0.2,0.285434995
0.208,0.282502444
0.216,0.279569892
0.224,0.277614858
0.232,0.275659824
0.24,0.27370479
0.248,0.271749756
0.256,0.270772239
0.264,0.269794721
0.272,0.269794721
0.28,0.268817204
0.288,0.267839687
0.296,0.26686217
0.304,0.265884653
0.312,0.263929619
0.32,0.262952102
0.328,0.260997067
0.336,0.260997067
0.344,0.26001955
0.352,0.26001955
0.36,0.260997067
0.368,0.261974585
0.376,0.261974585
0.384,0.261974585
0.392,0.262952102
0.4,0.261974585
0.408,0.261974585
0.416,0.261974585
0.424,0.260997067
0.432,0.260997067
0.44,0.260997067
0.448,0.26001955
0.456,0.26001955
0.464,0.260997067
0.472,0.260997067
0.48,0.263929619
0.488,0.269794721
0.496,0.28054741
0.504,0.2971652
0.512,0.321603128
0.52,0.353861193
0.528,0.392961877
0.536,0.439882698
0.544,0.490713587
0.552,0.543499511
0.56,0.588465298
0.568,0.626588465
0.576,0.66568915
0.584,0.698924731
0.592,0.725317693
0.6,0.742913001
0.608,0.752688172
0.616,0.755620723
0.624,0.752688172
0.632,0.745845552
0.64,0.736070381
0.648,0.72629521
0.656,0.717497556
0.664,0.709677419
0.672,0.703812317
0.68,0.700879765
0.688,0.699902248
0.696,0.7028348
0.704,0.706744868
0.712,0.712609971
0.72,0.718475073
0.728,0.723362659
0.736,0.72629521
0.744,0.723362659
0.752,0.715542522
0.76,0.707722385
0.768,0.697947214
0.776,0.686217009
0.784,0.672531769
0.792,0.656891496
0.8,0.642228739
0.808,0.627565982
0.816,0.61485826
0.824,0.604105572
0.832,0.595307918
0.84,0.589442815
0.848,0.585532747
0.856,0.582600196
0.864,0.580645161
0.872,0.578690127
0.88,0.575757576
0.888,0.573802542
0.896,0.57086999
0.904,0.566959922
0.912,0.562072336
0.92,0.556207234
0.928,0.550342131
0.936,0.542521994
0.944,0.534701857
0.952,0.52688172
0.96,0.519061584
0.968,0.511241447
0.976,0.50342131
0.984,0.494623656
0.992,0.486803519
1,0.478005865
1.008,0.470185728
1.016,0.462365591
1.024,0.454545455
1.032,0.446725318
1.04,0.439882698
1.048,0.433040078
1.056,0.428152493
1.064,0.423264907
1.072,0.418377322
1.08,0.413489736
1.088,0.409579668
1.096,0.404692082
1.104,0.400782014
1.112,0.396871945
1.12,0.393939394
1.128,0.390029326
1.136,0.387096774
1.144,0.384164223
1.152,0.381231672
1.16,0.379276637
1.168,0.377321603
1.176,0.375366569
1.184,0.373411535
1.192,0.3714565
1.2,0.368523949
1.208,0.366568915
1.216,0.364613881
1.224,0.361681329
1.232,0.358748778
1.24,0.35483871
1.248,0.351906158
1.256,0.349951124
1.264,0.348973607
1.272,0.347018573
1.28,0.345063539
1.288,0.343108504
1.296,0.34115347
1.304,0.338220919
1.312,0.336265885
1.32,0.333333333
1.328,0.331378299
1.336,0.329423265
1.344,0.327468231
1.352,0.325513196
1.36,0.324535679
1.368,0.324535679
1.376,0.323558162
1.384,0.322580645
1.392,0.321603128
1.4,0.321603128
1.408,0.320625611
1.416,0.319648094
1.424,0.31769306
1.432,0.316715543
1.44,0.314760508
1.448,0.312805474
1.456,0.311827957
1.464,0.31085044
1.472,0.308895406
1.48,0.306940371
1.488,0.304985337
1.496,0.305962854
1.504,0.309872923
1.512,0.31769306
1.52,0.332355816
1.528,0.353861193
1.536,0.384164223
1.544,0.420332356
1.552,0.463343109
1.56,0.502443793
1.568,0.54056696
1.576,0.583577713
1.584,0.625610948
1.592,0.663734115
1.6,0.695014663
1.608,0.718475073
1.616,0.734115347
1.624,0.742913001
1.632,0.744868035
1.64,0.742913001
1.648,0.737047898
1.656,0.730205279
1.664,0.722385142
1.672,0.715542522
1.68,0.710654936
1.688,0.707722385
1.696,0.706744868
1.704,0.707722385
1.712,0.711632454
1.72,0.717497556
1.728,0.724340176
1.736,0.731182796
1.744,0.738025415
1.752,0.741935484
1.76,0.742913001
1.768,0.740957967
1.776,0.736070381
1.784,0.728250244
1.792,0.717497556
1.8,0.7028348
1.808,0.687194526
1.816,0.668621701
1.824,0.650048876
1.832,0.631476051
1.84,0.61485826
1.848,0.600195503
1.856,0.588465298
1.864,0.579667644
1.872,0.572825024
1.88,0.567937439
1.888,0.565004888
1.896,0.563049853
1.904,0.561094819
1.912,0.560117302
1.92,0.557184751
1.928,0.554252199
1.936,0.550342131
1.944,0.545454545
1.952,0.539589443
1.96,0.53372434
1.968,0.52688172
1.976,0.519061584
1.984,0.51026393
1.992,0.500488759
2,0.490713587
2.008,0.480938416
2.016,0.470185728
2.024,0.460410557
2.032,0.451612903
2.04,0.442815249
2.048,0.434017595
2.056,0.427174976
2.064,0.421309873
2.072,0.41544477
2.08,0.409579668
2.088,0.404692082
2.096,0.399804497
2.104,0.394916911
2.112,0.390029326
2.12,0.386119257
2.128,0.382209189
2.136,0.377321603
2.144,0.373411535
2.152,0.3714565
2.16,0.368523949
2.168,0.366568915
2.176,0.363636364
2.184,0.360703812
2.192,0.358748778
2.2,0.355816227
2.208,0.352883675
2.216,0.350928641
2.224,0.34799609
2.232,0.346041056
2.24,0.343108504
2.248,0.34115347
2.256,0.339198436
2.264,0.337243402
2.272,0.335288368
2.28,0.333333333
2.288,0.330400782
2.296,0.328445748
2.304,0.325513196
2.312,0.322580645
2.32,0.320625611
2.328,0.31769306
2.336,0.314760508
2.344,0.311827957
2.352,0.31085044
2.36,0.309872923
2.368,0.307917889
2.376,0.306940371
2.384,0.304985337
2.392,0.30400782
2.4,0.302052786
2.408,0.301075269
2.416,0.300097752
2.424,0.299120235
2.432,0.298142717
2.44,0.2971652
2.448,0.296187683
2.456,0.296187683
2.464,0.296187683
2.472,0.295210166
2.48,0.294232649
2.488,0.293255132
2.496,0.292277615
2.504,0.290322581
2.512,0.289345064
2.52,0.287390029
2.528,0.286412512
2.536,0.285434995
2.544,0.285434995
2.552,0.289345064
2.56,0.296187683
2.568,0.307917889
2.576,0.327468231
2.584,0.353861193
2.592,0.388074291
2.6,0.430107527
2.608,0.476050831
2.616,0.523949169
2.624,0.571847507
2.632,0.616813294
2.64,0.656891496
2.648,0.688172043
2.656,0.709677419
2.664,0.722385142
2.672,0.730205279
2.68,0.73313783
2.688,0.732160313
2.696,0.72629521
2.704,0.71945259
2.712,0.711632454
2.72,0.703812317
2.728,0.697947214
2.736,0.694037146
2.744,0.693059629
2.752,0.694037146
2.76,0.695014663
2.768,0.699902248
2.776,0.706744868
2.784,0.712609971
2.792,0.718475073
2.8,0.721407625
2.808,0.723362659
2.816,0.723362659
2.824,0.718475073
2.832,0.710654936
2.84,0.698924731
2.848,0.684261975
2.856,0.667644184
2.864,0.651026393
2.872,0.632453568
2.88,0.613880743
2.888,0.596285435
2.896,0.580645161
2.904,0.567937439
2.912,0.558162268
2.92,0.551319648
2.928,0.54740958
2.936,0.543499511
2.944,0.54056696
2.952,0.538611926
2.96,0.535679374
2.968,0.532746823
2.976,0.529814272
2.984,0.524926686
2.992,0.519061584
3,0.513196481
3.008,0.505376344
3.016,0.49657869
3.024,0.487781036
3.032,0.478983382
3.04,0.469208211
3.048,0.45943304
3.056,0.450635386
3.064,0.442815249
3.072,0.434017595
3.08,0.424242424
3.088,0.41544477
3.096,0.406647116
3.104,0.398826979
3.112,0.391006843
3.12,0.383186706
3.128,0.376344086
3.136,0.370478983
3.144,0.364613881
3.152,0.360703812
3.16,0.356793744
3.168,0.352883675
3.176,0.34799609
3.184,0.344086022
3.192,0.340175953
3.2,0.336265885
3.208,0.333333333
3.216,0.329423265
3.224,0.326490714
3.232,0.323558162
3.24,0.320625611
3.248,0.318670577
3.256,0.316715543
3.264,0.315738025
3.272,0.313782991
3.28,0.311827957
3.288,0.309872923
3.296,0.306940371
3.304,0.30400782
3.312,0.302052786
3.32,0.300097752
3.328,0.2971652
3.336,0.294232649
3.344,0.291300098
3.352,0.290322581
3.36,0.288367546
3.368,0.287390029
3.376,0.285434995
3.384,0.283479961
3.392,0.28054741
3.4,0.278592375
3.408,0.276637341
3.416,0.275659824
3.424,0.27370479
3.432,0.272727273
3.44,0.270772239
3.448,0.269794721
3.456,0.268817204
3.464,0.268817204
3.472,0.268817204
3.48,0.267839687
3.488,0.265884653
3.496,0.263929619
3.504,0.260997067
3.512,0.259042033
3.52,0.256109482
3.528,0.254154448
3.536,0.253176931
3.544,0.254154448
3.552,0.258064516
3.56,0.265884653
3.568,0.279569892
3.576,0.300097752
3.584,0.329423265
3.592,0.366568915
3.6,0.410557185
3.608,0.45943304
3.616,0.511241447
3.624,0.561094819
3.632,0.607038123
3.64,0.647116325
3.648,0.679374389
3.656,0.700879765
3.664,0.712609971
3.672,0.720430108
3.68,0.722385142
3.688,0.718475073
3.696,0.712609971
3.704,0.703812317
3.712,0.695014663
3.72,0.687194526
3.728,0.681329423
3.736,0.677419355
3.744,0.677419355
3.752,0.677419355
3.76,0.679374389
3.768,0.683284457
3.776,0.68914956
3.784,0.69599218
3.792,0.700879765
3.8,0.704789834
3.808,0.705767351
3.816,0.703812317
3.824,0.696969697
3.832,0.687194526
3.84,0.673509286
3.848,0.656891496
3.856,0.640273705
3.864,0.623655914
3.872,0.605083089
3.88,0.586510264
3.888,0.568914956
3.896,0.554252199
3.904,0.541544477
3.912,0.532746823
3.92,0.525904203
3.928,0.521016618
3.936,0.517106549
3.944,0.514173998
3.952,0.512218964
3.96,0.509286413
3.968,0.505376344
3.976,0.500488759
3.984,0.495601173
3.992,0.488758553
4,0.480938416
4.008,0.47311828
4.016,0.463343109
4.024,0.454545455
4.032,0.443792766
4.04,0.434017595
4.048,0.424242424
4.056,0.416422287
4.064,0.407624633
4.072,0.397849462
4.08,0.389051808
4.088,0.379276637
4.096,0.3714565
4.104,0.362658847
4.112,0.35483871
4.12,0.34799609
4.128,0.34115347
4.136,0.33431085
4.144,0.328445748
4.152,0.324535679
4.16,0.320625611
4.168,0.31769306
4.176,0.313782991
4.184,0.31085044
4.192,0.306940371
4.2,0.30400782
4.208,0.300097752
4.216,0.2971652
4.224,0.294232649
4.232,0.291300098
4.24,0.287390029
4.248,0.285434995
4.256,0.283479961
4.264,0.281524927
4.272,0.278592375
4.28,0.275659824
4.288,0.272727273
4.296,0.270772239
4.304,0.267839687
4.312,0.264907136
4.32,0.262952102
4.328,0.26001955
4.336,0.258064516
4.344,0.256109482
4.352,0.255131965
4.36,0.254154448
4.368,0.252199413
4.376,0.250244379
4.384,0.248289345
4.392,0.246334311
4.4,0.24340176
4.408,0.241446725
4.416,0.239491691
4.424,0.23655914
4.432,0.234604106
4.44,0.232649071
4.448,0.232649071
4.456,0.232649071
4.464,0.231671554
4.472,0.230694037
4.48,0.22971652
4.488,0.228739003
4.496,0.226783969
4.504,0.224828935
4.512,0.2228739
4.52,0.219941349
4.528,0.217986315
4.536,0.216031281
4.544,0.217008798
4.552,0.220918866
4.56,0.228739003
4.568,0.24340176
4.576,0.264907136
4.584,0.295210166
4.592,0.333333333
4.6,0.379276637
4.608,0.42913001
4.616,0.481915934
4.624,0.532746823
4.632,0.579667644
4.64,0.620723363
4.648,0.649071359
4.656,0.668621701
4.664,0.683284457
4.672,0.691104594
4.68,0.691104594
4.688,0.686217009
4.696,0.676441838
4.704,0.664711632
4.712,0.65200391
4.72,0.640273705
4.728,0.631476051
4.736,0.624633431
4.744,0.62170088
4.752,0.619745846
4.76,0.620723363
4.768,0.624633431
4.776,0.629521017
4.784,0.635386119
4.792,0.640273705
4.8,0.643206256
4.808,0.642228739
4.816,0.638318671
4.824,0.631476051
4.832,0.619745846
4.84,0.611925709
4.848,0.607038123
4.856,0.597262952
4.864,0.583577713
4.872,0.567937439
4.88,0.554252199
4.888,0.541544477
4.896,0.530791789
4.904,0.522971652
4.912,0.518084066
4.92,0.514173998
4.928,0.512218964
4.936,0.511241447
4.944,0.51026393
4.952,0.508308895
4.96,0.506353861
4.968,0.504398827
4.976,0.500488759
4.984,0.495601173
4.992,0.48973607
5,0.481915934
5.008,0.474095797
5.016,0.465298143
5.024,0.455522972
5.032,0.445747801
5.04,0.43597263
5.048,0.427174976
5.056,0.419354839
5.064,0.410557185
5.072,0.400782014
5.08,0.392961877
5.088,0.384164223
5.096,0.377321603
5.104,0.370478983
5.112,0.364613881
5.12,0.358748778
5.128,0.353861193
5.136,0.348973607
5.144,0.345063539
5.152,0.34115347
5.16,0.338220919
5.168,0.335288368
5.176,0.332355816
5.184,0.328445748
5.192,0.326490714
5.2,0.323558162
5.208,0.321603128
5.216,0.319648094
5.224,0.31769306
5.232,0.316715543
5.24,0.314760508
5.248,0.314760508
5.256,0.313782991
5.264,0.313782991
5.272,0.312805474
5.28,0.311827957
5.288,0.31085044
5.296,0.31085044
5.304,0.31085044
5.312,0.31085044
5.32,0.31085044
5.328,0.31085044
5.336,0.31085044
5.344,0.31085044
5.352,0.31085044
5.36,0.311827957
5.368,0.312805474
5.376,0.312805474
5.384,0.312805474
5.392,0.312805474
5.4,0.312805474
5.408,0.311827957
5.416,0.31085044
5.424,0.31085044
5.432,0.309872923
5.44,0.308895406
5.448,0.308895406
5.456,0.308895406
5.464,0.308895406
5.472,0.308895406
5.48,0.308895406
5.488,0.309872923
5.496,0.312805474
5.504,0.318670577
5.512,0.329423265
5.52,0.347018573
5.528,0.3714565
5.536,0.403714565
5.544,0.443792766
5.552,0.482893451
5.56,0.521994135
5.568,0.568914956
5.576,0.616813294
5.584,0.662756598
5.592,0.7028348
5.6,0.736070381
5.608,0.759530792
5.616,0.774193548
5.624,0.782013685
5.632,0.782013685
5.64,0.778103617
5.648,0.77028348
5.656,0.761485826
5.664,0.751710655
5.672,0.741935484
5.68,0.734115347
5.688,0.728250244
5.696,0.72629521
5.704,0.725317693
5.712,0.728250244
5.72,0.732160313
5.728,0.736070381
5.736,0.740957967
5.744,0.742913001
5.752,0.742913001
5.76,0.740957967
5.768,0.736070381
5.776,0.727272727
5.784,0.716520039
5.792,0.7028348
5.8,0.686217009
5.808,0.669599218
5.816,0.652981427
5.824,0.636363636
5.832,0.62170088
5.84,0.608993157
5.848,0.599217986
5.856,0.591397849
5.864,0.586510264
5.872,0.582600196
5.88,0.580645161
5.888,0.578690127
5.896,0.57771261
5.904,0.574780059
5.912,0.571847507
5.92,0.567937439
5.928,0.563049853
5.936,0.556207234
5.944,0.550342131
5.952,0.543499511
5.96,0.536656891
5.968,0.527859238
5.976,0.519061584
5.984,0.51026393
5.992,0.500488759
6,0.490713587
6.008,0.480938416
6.016,0.471163245
6.024,0.462365591
6.032,0.453567937
6.04,0.444770283
6.048,0.437927664
6.056,0.432062561
6.064,0.425219941
6.072,0.419354839
6.08,0.413489736
6.088,0.407624633
6.096,0.402737048
6.104,0.397849462
6.112,0.393939394
6.12,0.390029326
6.128,0.386119257
6.136,0.382209189
6.144,0.379276637
6.152,0.377321603
6.16,0.374389052
6.168,0.3714565
6.176,0.368523949
6.184,0.366568915
6.192,0.363636364
6.2,0.361681329
6.208,0.358748778
6.216,0.356793744
6.224,0.353861193
6.232,0.351906158
6.24,0.349951124
6.248,0.34799609
6.256,0.347018573
6.264,0.345063539
6.272,0.342130987
6.28,0.340175953
6.288,0.337243402
6.296,0.335288368
6.304,0.332355816
6.312,0.330400782
6.32,0.329423265
6.328,0.327468231
6.336,0.325513196
6.344,0.324535679
6.352,0.323558162
6.36,0.322580645
6.368,0.320625611
6.376,0.319648094
6.384,0.31769306
6.392,0.315738025
6.4,0.313782991
6.408,0.311827957
6.416,0.309872923
6.424,0.306940371
6.432,0.304985337
6.44,0.303030303
6.448,0.302052786
6.456,0.303030303
6.464,0.306940371
6.472,0.316715543
6.48,0.332355816
6.488,0.356793744
6.496,0.389051808
6.504,0.430107527
6.512,0.477028348
6.52,0.527859238
6.528,0.579667644
6.536,0.630498534
6.544,0.670576735
6.552,0.7028348
6.56,0.731182796
6.568,0.753665689
6.576,0.769305963
6.584,0.7771261
6.592,0.778103617
6.6,0.775171065
6.608,0.768328446
6.616,0.761485826
6.624,0.753665689
6.632,0.747800587
6.64,0.743890518
6.648,0.740957967
6.656,0.73998045
6.664,0.741935484
6.672,0.746823069
6.68,0.752688172
6.688,0.760508309
6.696,0.767350929
6.704,0.772238514
6.712,0.775171065
6.72,0.774193548
6.728,0.77028348
6.736,0.762463343
6.744,0.750733138
6.752,0.738025415
6.76,0.720430108
6.768,0.700879765
6.776,0.679374389
6.784,0.657869013
6.792,0.636363636
6.8,0.617790811
6.808,0.602150538
6.816,0.589442815
6.824,0.579667644
6.832,0.572825024
6.84,0.568914956
6.848,0.565004888
6.856,0.563049853
6.864,0.561094819
6.872,0.559139785
6.88,0.556207234
6.888,0.541544477
6.896,0.520039101
6.904,0.506353861
6.912,0.494623656
6.92,0.484848485
6.928,0.474095797
6.936,0.464320626
6.944,0.455522972
6.952,0.445747801
6.96,0.43597263
6.968,0.425219941
6.976,0.41544477
6.984,0.404692082
6.992,0.394916911
7,0.38514174
7.008,0.376344086
7.016,0.368523949
7.024,0.360703812
7.032,0.352883675
7.04,0.347018573
7.048,0.342130987
7.056,0.337243402
7.064,0.332355816
7.072,0.327468231
7.08,0.322580645
7.088,0.318670577
7.096,0.314760508
7.104,0.31085044
7.112,0.307917889
7.12,0.30400782
7.128,0.301075269
7.136,0.299120235
7.144,0.2971652
7.152,0.295210166
7.16,0.293255132
7.168,0.290322581
7.176,0.287390029
7.184,0.285434995
7.192,0.283479961
7.2,0.28054741
7.208,0.278592375
7.216,0.276637341
7.224,0.27370479
7.232,0.270772239
7.24,0.268817204
7.248,0.26686217
7.256,0.264907136
7.264,0.262952102
7.272,0.260997067
7.28,0.258064516
7.288,0.256109482
7.296,0.253176931
7.304,0.250244379
7.312,0.248289345
7.32,0.246334311
7.328,0.244379277
7.336,0.242424242
7.344,0.241446725
7.352,0.241446725
7.36,0.241446725
7.368,0.240469208
7.376,0.239491691
7.384,0.239491691
7.392,0.238514174
7.4,0.237536657
7.408,0.237536657
7.416,0.23655914
7.424,0.234604106
7.432,0.232649071
7.44,0.230694037
7.448,0.228739003
7.456,0.227761486
7.464,0.226783969
7.472,0.226783969
7.48,0.228739003
7.488,0.23655914
7.496,0.250244379
7.504,0.271749756
7.512,0.302052786
7.52,0.34115347
7.528,0.387096774
7.536,0.438905181
7.544,0.485826002
7.552,0.528836755
7.56,0.574780059
7.568,0.619745846
7.576,0.656891496
7.584,0.687194526
7.592,0.707722385
7.6,0.71945259
7.608,0.724340176
7.616,0.722385142
7.624,0.717497556
7.632,0.709677419
7.64,0.701857283
7.648,0.694037146
7.656,0.687194526
7.664,0.684261975
7.672,0.683284457
7.68,0.684261975
7.688,0.688172043
7.696,0.694037146
7.704,0.700879765
7.712,0.707722385
7.72,0.714565005
7.728,0.718475073
7.736,0.720430108
7.744,0.717497556
7.752,0.711632454
7.76,0.7028348
7.768,0.690127077
7.776,0.673509286
7.784,0.654936461
7.792,0.634408602
7.8,0.612903226
7.808,0.592375367
7.816,0.573802542
7.824,0.557184751
7.832,0.543499511
7.84,0.532746823
7.848,0.525904203
7.856,0.520039101
7.864,0.516129032
7.872,0.513196481
7.88,0.511241447
7.888,0.509286413
7.896,0.507331378
7.904,0.50342131
7.912,0.499511241
7.92,0.494623656
7.928,0.487781036
7.936,0.479960899
7.944,0.472140762
7.952,0.464320626
7.96,0.455522972
7.968,0.445747801
7.976,0.434995112
7.984,0.424242424
7.992,0.413489736
8,0.403714565
8.008,0.393939394
8.016,0.384164223
8.024,0.374389052
8.032,0.365591398
8.04,0.358748778
8.048,0.352883675
8.056,0.347018573
8.064,0.34115347
8.072,0.335288368
8.08,0.329423265
8.088,0.324535679
8.096,0.319648094
8.104,0.315738025
8.112,0.311827957
8.12,0.307917889
8.128,0.304985337
8.136,0.302052786
8.144,0.300097752
8.152,0.299120235
8.16,0.296187683
8.168,0.294232649
8.176,0.291300098
8.184,0.289345064
8.192,0.286412512
8.2,0.283479961
8.208,0.28054741
8.216,0.278592375
8.224,0.276637341
8.232,0.27370479
8.24,0.272727273
8.248,0.270772239
8.256,0.268817204
8.264,0.265884653
8.272,0.262952102
8.28,0.26001955
8.288,0.257086999
8.296,0.254154448
8.304,0.252199413
8.312,0.249266862
8.32,0.246334311
8.328,0.24340176
8.336,0.241446725
8.344,0.239491691
8.352,0.238514174
8.36,0.23655914
8.368,0.233626588
8.376,0.230694037
8.384,0.228739003
8.392,0.226783969
8.4,0.224828935
8.408,0.221896383
8.416,0.219941349
8.424,0.218963832
8.432,0.217008798
8.44,0.217008798
8.448,0.217008798
8.456,0.216031281
8.464,0.215053763
8.472,0.213098729
8.48,0.211143695
8.488,0.209188661
8.496,0.206256109
8.504,0.204301075
8.512,0.201368524
8.52,0.19941349
8.528,0.197458456
8.536,0.196480938
8.544,0.198435973
8.552,0.201368524
8.56,0.207233627
8.568,0.217986315
8.576,0.23655914
8.584,0.261974585
8.592,0.296187683
8.6,0.339198436
8.608,0.388074291
8.616,0.440860215
8.624,0.494623656
8.632,0.54740958
8.64,0.588465298
8.648,0.622678397
8.656,0.65200391
8.664,0.675464321
8.672,0.690127077
8.68,0.696969697
8.688,0.696969697
8.696,0.691104594
8.704,0.681329423
8.712,0.670576735
8.72,0.659824047
8.728,0.650048876
8.736,0.643206256
8.744,0.638318671
8.752,0.635386119
8.76,0.636363636
8.768,0.640273705
8.776,0.646138807
8.784,0.652981427
8.792,0.659824047
8.8,0.66568915
8.808,0.669599218
8.816,0.670576735
8.824,0.667644184
8.832,0.659824047
8.84,0.650048876
8.848,0.637341153
8.856,0.620723363
8.864,0.602150538
8.872,0.582600196
8.88,0.56402737
8.888,0.545454545
8.896,0.528836755
8.904,0.516129032
8.912,0.505376344
8.92,0.497556207
8.928,0.492668622
8.936,0.498533724
8.944,0.509286413
8.952,0.514173998
8.96,0.516129032
8.968,0.516129032
8.976,0.513196481
8.984,0.51026393
8.992,0.505376344
9,0.499511241
9.008,0.492668622
9.016,0.483870968
9.024,0.475073314
9.032,0.465298143
9.04,0.457478006
9.048,0.448680352
9.056,0.439882698
9.064,0.430107527
9.072,0.420332356
9.08,0.411534702
9.088,0.402737048
9.096,0.393939394
9.104,0.386119257
9.112,0.37829912
9.12,0.3714565
9.128,0.364613881
9.136,0.358748778
9.144,0.353861193
9.152,0.349951124
9.16,0.346041056
9.168,0.342130987
9.176,0.338220919
9.184,0.335288368
9.192,0.331378299
9.2,0.327468231
9.208,0.323558162
9.216,0.320625611
9.224,0.31769306
9.232,0.314760508
9.24,0.312805474
9.248,0.31085044
9.256,0.308895406
9.264,0.306940371
9.272,0.304985337
9.28,0.302052786
9.288,0.299120235
9.296,0.296187683
9.304,0.294232649
9.312,0.291300098
9.32,0.289345064
9.328,0.287390029
9.336,0.285434995
9.344,0.285434995
9.352,0.285434995
9.36,0.284457478
9.368,0.284457478
9.376,0.283479961
9.384,0.281524927
9.392,0.28054741
9.4,0.278592375
9.408,0.276637341
9.416,0.274682307
9.424,0.272727273
9.432,0.271749756
9.44,0.270772239
9.448,0.270772239
9.456,0.270772239
9.464,0.268817204
9.472,0.267839687
9.48,0.265884653
9.488,0.263929619
9.496,0.261974585
9.504,0.26001955
9.512,0.258064516
9.52,0.256109482
9.528,0.254154448
9.536,0.253176931
9.544,0.253176931
9.552,0.252199413
9.56,0.253176931
9.568,0.255131965
9.576,0.260997067
9.584,0.271749756
9.592,0.288367546
9.6,0.313782991
9.608,0.346041056
9.616,0.386119257
9.624,0.431085044
9.632,0.480938416
9.64,0.524926686
9.648,0.56402737
9.656,0.605083089
9.664,0.643206256
9.672,0.674486804
9.68,0.696969697
9.688,0.711632454
9.696,0.718475073
9.704,0.718475073
9.712,0.713587488
9.72,0.705767351
9.728,0.69599218
9.736,0.686217009
9.744,0.677419355
9.752,0.669599218
9.76,0.664711632
9.768,0.661779081
9.776,0.662756598
9.784,0.66568915
9.792,0.671554252
9.8,0.677419355
9.808,0.684261975
9.816,0.68914956
9.824,0.692082111
9.832,0.692082111
9.84,0.68914956
9.848,0.68230694
9.856,0.673509286
9.864,0.660801564
9.872,0.647116325
9.88,0.631476051
9.888,0.615835777
9.896,0.601173021
9.904,0.589442815
9.912,0.578690127
9.92,0.571847507
9.928,0.566959922
9.936,0.563049853
9.944,0.561094819
9.952,0.560117302
9.96,0.560117302
9.968,0.560117302
9.976,0.560117302
9.984,0.559139785
9.992,0.556207234
10,0.552297165
10.008,0.548387097
10.016,0.541544477
10.024,0.534701857
10.032,0.52688172
10.04,0.519061584
10.048,0.511241447
10.056,0.501466276
10.064,0.492668622
10.072,0.482893451
10.08,0.47311828
10.088,0.464320626
10.096,0.455522972
10.104,0.447702835
10.112,0.440860215
10.12,0.434017595
10.128,0.427174976
10.136,0.42228739
10.144,0.417399804
10.152,0.413489736
10.16,0.408602151
10.168,0.404692082
10.176,0.400782014
10.184,0.396871945
10.192,0.393939394
10.2,0.391006843
10.208,0.389051808
10.216,0.386119257
10.224,0.384164223
10.232,0.382209189
10.24,0.380254154
10.248,0.37829912
10.256,0.376344086
10.264,0.374389052
10.272,0.372434018
10.28,0.370478983
10.288,0.369501466
10.296,0.367546432
10.304,0.365591398
10.312,0.362658847
10.32,0.359726295
10.328,0.356793744
10.336,0.35483871
10.344,0.352883675
10.352,0.350928641
10.36,0.348973607
10.368,0.347018573
10.376,0.345063539
10.384,0.344086022
10.392,0.342130987
10.4,0.34115347
10.408,0.340175953
10.416,0.338220919
10.424,0.337243402
10.432,0.336265885
10.44,0.335288368
10.448,0.33431085
10.456,0.333333333
10.464,0.331378299
10.472,0.329423265
10.48,0.328445748
10.488,0.326490714
10.496,0.324535679
10.504,0.321603128
10.512,0.318670577
10.52,0.315738025
10.528,0.313782991
10.536,0.313782991
10.544,0.315738025
10.552,0.320625611
10.56,0.330400782
10.568,0.347018573
10.576,0.3714565
10.584,0.402737048
10.592,0.442815249
10.6,0.487781036
10.608,0.536656891
10.616,0.586510264
10.624,0.633431085
10.632,0.675464321
10.64,0.707722385
10.648,0.730205279
10.656,0.747800587
10.664,0.759530792
10.672,0.765395894
10.68,0.765395894
10.688,0.761485826
10.696,0.754643206
10.704,0.746823069
10.712,0.739002933
10.72,0.732160313
10.728,0.727272727
10.736,0.724340176
10.744,0.722385142
10.752,0.724340176
10.76,0.728250244
10.768,0.73313783
10.776,0.73998045
10.784,0.744868035
10.792,0.748778104
10.8,0.750733138
10.808,0.748778104
10.816,0.743890518
10.824,0.734115347
10.832,0.722385142
10.84,0.708699902
10.848,0.693059629
10.856,0.675464321
10.864,0.656891496
10.872,0.638318671
10.88,0.620723363
10.888,0.606060606
10.896,0.593352884
10.904,0.582600196
10.912,0.575757576
10.92,0.57086999
10.928,0.567937439
10.936,0.565982405
10.944,0.56402737
10.952,0.563049853
10.96,0.562072336
10.968,0.559139785
10.976,0.556207234
10.984,0.548387097
10.992,0.537634409
11,0.527859238
11.008,0.519061584
11.016,0.511241447
11.024,0.502443793
11.032,0.492668622
11.04,0.484848485
11.048,0.476050831
11.056,0.467253177
11.064,0.458455523
11.072,0.449657869
11.08,0.441837732
11.088,0.434017595
11.096,0.426197458
11.104,0.418377322
11.112,0.411534702
11.12,0.405669599
11.128,0.399804497
11.136,0.394916911
11.144,0.391006843
11.152,0.386119257
11.16,0.382209189
11.168,0.377321603
11.176,0.373411535
11.184,0.370478983
11.192,0.366568915
11.2,0.363636364
11.208,0.359726295
11.216,0.356793744
11.224,0.353861193
11.232,0.351906158
11.24,0.349951124
11.248,0.347018573
11.256,0.345063539
11.264,0.342130987
11.272,0.340175953
11.28,0.337243402
11.288,0.335288368
11.296,0.332355816
11.304,0.329423265
11.312,0.326490714
11.32,0.323558162
11.328,0.321603128
11.336,0.319648094
11.344,0.31769306
11.352,0.315738025
11.36,0.312805474
11.368,0.309872923
11.376,0.305962854
11.384,0.30400782
11.392,0.301075269
11.4,0.298142717
11.408,0.296187683
11.416,0.295210166
11.424,0.293255132
11.432,0.292277615
11.44,0.291300098
11.448,0.290322581
11.456,0.288367546
11.464,0.286412512
11.472,0.284457478
11.48,0.282502444
11.488,0.28054741
11.496,0.278592375
11.504,0.276637341
11.512,0.27370479
11.52,0.271749756
11.528,0.269794721
11.536,0.269794721
11.544,0.270772239
11.552,0.274682307
11.56,0.282502444
11.568,0.296187683
11.576,0.316715543
11.584,0.345063539
11.592,0.381231672
11.6,0.423264907
11.608,0.470185728
11.616,0.519061584
11.624,0.567937439
11.632,0.607038123
11.64,0.639296188
11.648,0.668621701
11.656,0.693059629
11.664,0.709677419
11.672,0.718475073
11.68,0.721407625
11.688,0.71945259
11.696,0.713587488
11.704,0.706744868
11.712,0.698924731
11.72,0.692082111
11.728,0.687194526
11.736,0.684261975
11.744,0.68230694
11.752,0.683284457
11.76,0.687194526
11.768,0.692082111
11.776,0.698924731
11.784,0.704789834
11.792,0.710654936
11.8,0.714565005
11.808,0.716520039
11.816,0.714565005
11.824,0.708699902
11.832,0.699902248
11.84,0.68914956
11.848,0.674486804
11.856,0.657869013
11.864,0.639296188
11.872,0.619745846
11.88,0.600195503
11.888,0.583577713
11.896,0.568914956
11.904,0.556207234
11.912,0.546432063
11.92,0.539589443
11.928,0.534701857
11.936,0.531769306
11.944,0.529814272
11.952,0.527859238
11.96,0.52688172
11.968,0.524926686
11.976,0.521994135
11.984,0.519061584
11.992,0.514173998
12,0.508308895
12.008,0.501466276
12.016,0.493646139
12.024,0.484848485
12.032,0.477028348
12.04,0.469208211
12.048,0.460410557
12.056,0.451612903
12.064,0.442815249
12.072,0.433040078
12.08,0.424242424
12.088,0.41544477
12.096,0.407624633
12.104,0.399804497
12.112,0.39198436
12.12,0.386119257
12.128,0.380254154
12.136,0.375366569
12.144,0.372434018
12.152,0.367546432
12.16,0.363636364
12.168,0.359726295
12.176,0.355816227
12.184,0.351906158
12.192,0.348973607
12.2,0.346041056
12.208,0.343108504
12.216,0.340175953
12.224,0.338220919
12.232,0.336265885
12.24,0.335288368
12.248,0.333333333
12.256,0.330400782
12.264,0.328445748
12.272,0.326490714
12.28,0.324535679
12.288,0.322580645
12.296,0.320625611
12.304,0.318670577
12.312,0.316715543
12.32,0.313782991
12.328,0.311827957
12.336,0.309872923
12.344,0.307917889
12.352,0.305962854
12.36,0.30400782
12.368,0.302052786
12.376,0.300097752
12.384,0.2971652
12.392,0.295210166
12.4,0.294232649
12.408,0.292277615
12.416,0.291300098
12.424,0.290322581
12.432,0.289345064
12.44,0.289345064
12.448,0.289345064
12.456,0.288367546
12.464,0.287390029
12.472,0.286412512
12.48,0.284457478
12.488,0.283479961
12.496,0.282502444
12.504,0.281524927
12.512,0.28054741
12.52,0.278592375
12.528,0.277614858
12.536,0.276637341
12.544,0.276637341
12.552,0.275659824
12.56,0.274682307
12.568,0.275659824
12.576,0.279569892
12.584,0.288367546
12.592,0.303030303
12.6,0.324535679
12.608,0.353861193
12.616,0.391006843
12.624,0.434017595
12.632,0.475073314
12.64,0.515151515
12.648,0.559139785
12.656,0.603128055
12.664,0.642228739
12.672,0.675464321
12.68,0.699902248
12.688,0.715542522
12.696,0.724340176
12.704,0.72629521
12.712,0.723362659
12.72,0.716520039
12.728,0.707722385
12.736,0.699902248
12.744,0.691104594
12.752,0.685239492
12.76,0.680351906
12.768,0.678396872
12.776,0.679374389
12.784,0.68230694
12.792,0.687194526
12.8,0.693059629
12.808,0.698924731
12.816,0.704789834
12.824,0.707722385
12.832,0.707722385
12.84,0.704789834
12.848,0.698924731
12.856,0.690127077
12.864,0.678396872
12.872,0.664711632
12.88,0.648093842
12.888,0.630498534
12.896,0.612903226
12.904,0.595307918
12.912,0.579667644
12.92,0.566959922
12.928,0.555229717
12.936,0.54740958
12.944,0.541544477
12.952,0.536656891
12.96,0.53372434
12.968,0.531769306
12.976,0.530791789
12.984,0.527859238
12.992,0.524926686
13,0.521016618
13.008,0.516129032
13.016,0.511241447
13.024,0.504398827
13.032,0.497556207
13.04,0.490713587
13.048,0.481915934
13.056,0.47311828
13.064,0.464320626
13.072,0.454545455
13.08,0.443792766
13.088,0.434017595
13.096,0.424242424
13.104,0.414467253
13.112,0.404692082
13.12,0.395894428
13.128,0.389051808
13.136,0.383186706
13.144,0.377321603
13.152,0.372434018
13.16,0.366568915
13.168,0.362658847
13.176,0.357771261
13.184,0.353861193
13.192,0.348973607
13.2,0.345063539
13.208,0.34115347
13.216,0.337243402
13.224,0.33431085
13.232,0.331378299
13.24,0.330400782
13.248,0.328445748
13.256,0.325513196
13.264,0.323558162
13.272,0.320625611
13.28,0.318670577
13.288,0.316715543
13.296,0.314760508
13.304,0.311827957
13.312,0.309872923
13.32,0.307917889
13.328,0.305962854
13.336,0.304985337
13.344,0.303030303
13.352,0.300097752
13.36,0.2971652
13.368,0.295210166
13.376,0.292277615
13.384,0.290322581
13.392,0.287390029
13.4,0.285434995
13.408,0.282502444
13.416,0.279569892
13.424,0.277614858
13.432,0.275659824
13.44,0.274682307
13.448,0.27370479
13.456,0.271749756
13.464,0.270772239
13.472,0.268817204
13.48,0.26686217
13.488,0.264907136
13.496,0.261974585
13.504,0.26001955
13.512,0.258064516
13.52,0.256109482
13.528,0.255131965
13.536,0.254154448
13.544,0.252199413
13.552,0.250244379
13.56,0.248289345
13.568,0.245356794
13.576,0.24340176
13.584,0.239491691
13.592,0.23655914
13.6,0.234604106
13.608,0.233626588
13.616,0.237536657
13.624,0.246334311
13.632,0.259042033
13.64,0.277614858
13.648,0.304985337
13.656,0.34115347
13.664,0.38514174
13.672,0.434017595
13.68,0.486803519
13.688,0.538611926
13.696,0.587487781
13.704,0.629521017
13.712,0.664711632
13.72,0.690127077
13.728,0.704789834
13.736,0.711632454
13.744,0.713587488
13.752,0.709677419
13.76,0.700879765
13.768,0.691104594
13.776,0.679374389
13.784,0.668621701
13.792,0.65884653
13.8,0.65200391
13.808,0.649071359
13.816,0.649071359
13.824,0.651026393
13.832,0.654936461
13.84,0.657869013
13.848,0.663734115
13.856,0.669599218
13.864,0.673509286
13.872,0.675464321
13.88,0.673509286
13.888,0.668621701
13.896,0.65884653
13.904,0.64516129
13.912,0.629521017
13.92,0.610948192
13.928,0.593352884
13.936,0.57771261
13.944,0.560117302
13.952,0.544477028
13.96,0.530791789
13.968,0.520039101
13.976,0.511241447
13.984,0.505376344
13.992,0.501466276
14,0.499511241
14.008,0.497556207
14.016,0.495601173
14.024,0.493646139
14.032,0.491691105
14.04,0.488758553
14.048,0.483870968
14.056,0.478005865
14.064,0.471163245
14.072,0.463343109
14.08,0.454545455
14.088,0.445747801
14.096,0.434995112
14.104,0.425219941
14.112,0.414467253
14.12,0.404692082
14.128,0.395894428
14.136,0.388074291
14.144,0.379276637
14.152,0.370478983
14.16,0.362658847
14.168,0.35483871
14.176,0.347018573
14.184,0.340175953
14.192,0.33431085
14.2,0.328445748
14.208,0.322580645
14.216,0.31769306
14.224,0.312805474
14.232,0.309872923
14.24,0.306940371
14.248,0.30400782
14.256,0.300097752
14.264,0.2971652
14.272,0.294232649
14.28,0.290322581
14.288,0.287390029
14.296,0.285434995
14.304,0.282502444
14.312,0.279569892
14.32,0.277614858
14.328,0.275659824
14.336,0.274682307
14.344,0.272727273
14.352,0.270772239
14.36,0.268817204
14.368,0.265884653
14.376,0.262952102
14.384,0.260997067
14.392,0.258064516
14.4,0.255131965
14.408,0.253176931
14.416,0.251221896
14.424,0.249266862
14.432,0.248289345
14.44,0.247311828
14.448,0.246334311
14.456,0.245356794
14.464,0.24340176
14.472,0.241446725
14.48,0.239491691
14.488,0.237536657
14.496,0.234604106
14.504,0.232649071
14.512,0.230694037
14.52,0.228739003
14.528,0.228739003
14.536,0.228739003
14.544,0.227761486
14.552,0.226783969
14.56,0.225806452
14.568,0.224828935
14.576,0.223851417
14.584,0.221896383
14.592,0.219941349
14.6,0.218963832
14.608,0.218963832
14.616,0.220918866
14.624,0.227761486
14.632,0.23655914
14.64,0.251221896
14.648,0.27370479
14.656,0.30400782
14.664,0.344086022
14.672,0.391006843
14.68,0.443792766
14.688,0.499511241
14.696,0.554252199
14.704,0.606060606
14.712,0.651026393
14.72,0.687194526
14.728,0.711632454
14.736,0.72629521
14.744,0.736070381
14.752,0.739002933
14.76,0.737047898
14.768,0.730205279
14.776,0.720430108
14.784,0.709677419
14.792,0.698924731
14.8,0.691104594
14.808,0.684261975
14.816,0.681329423
14.824,0.681329423
14.832,0.68230694
14.84,0.685239492
14.848,0.690127077
14.856,0.69599218
14.864,0.701857283
14.872,0.706744868
14.88,0.707722385
14.888,0.705767351
14.896,0.699902248
14.904,0.690127077
14.912,0.677419355
14.92,0.662756598
14.928,0.649071359
14.936,0.635386119
14.944,0.620723363
14.952,0.60801564
14.96,0.597262952
14.968,0.588465298
14.976,0.581622678
14.984,0.57771261
14.992,0.574780059
15,0.573802542
15.008,0.572825024
15.016,0.571847507
15.024,0.569892473
15.032,0.566959922
15.04,0.561094819
15.048,0.556207234
15.056,0.551319648
15.064,0.545454545
15.072,0.538611926
15.08,0.534701857
15.088,0.531769306
15.096,0.525904203
15.104,0.518084066
15.112,0.509286413
15.12,0.500488759
15.128,0.491691105
15.136,0.483870968
15.144,0.476050831
15.152,0.467253177
15.16,0.45943304
15.168,0.450635386
15.176,0.443792766
15.184,0.436950147
15.192,0.431085044
15.2,0.425219941
15.208,0.420332356
15.216,0.41544477
15.224,0.411534702
15.232,0.409579668
15.24,0.406647116
15.248,0.403714565
15.256,0.400782014
15.264,0.397849462
15.272,0.395894428
15.28,0.392961877
15.288,0.391006843
15.296,0.388074291
15.304,0.386119257
15.312,0.383186706
15.32,0.380254154
15.328,0.37829912
15.336,0.377321603
15.344,0.375366569
15.352,0.373411535
15.36,0.3714565
15.368,0.368523949
15.376,0.365591398
15.384,0.362658847
15.392,0.359726295
15.4,0.356793744
15.408,0.35483871
15.416,0.351906158
15.424,0.350928641
15.432,0.348973607
15.44,0.34799609
15.448,0.346041056
15.456,0.344086022
15.464,0.342130987
15.472,0.340175953
15.48,0.339198436
15.488,0.338220919
15.496,0.336265885
15.504,0.335288368
15.512,0.333333333
15.52,0.331378299
15.528,0.330400782
15.536,0.329423265
15.544,0.328445748
15.552,0.326490714
15.56,0.324535679
15.568,0.322580645
15.576,0.319648094
15.584,0.31769306
15.592,0.315738025
15.6,0.315738025
15.608,0.319648094
15.616,0.328445748
15.624,0.340175953
15.632,0.356793744
15.64,0.381231672
15.648,0.414467253
15.656,0.455522972
15.664,0.501466276
15.672,0.550342131
15.68,0.599217986
15.688,0.646138807
15.696,0.687194526
15.704,0.721407625
15.712,0.747800587
15.72,0.764418377
15.728,0.772238514
15.736,0.774193548
15.744,0.771260997
15.752,0.765395894
15.76,0.75659824
15.768,0.746823069
15.776,0.738025415
15.784,0.731182796
15.792,0.72629521
15.8,0.724340176
15.808,0.724340176
15.816,0.72629521
15.824,0.729227761
15.832,0.732160313
15.84,0.737047898
15.848,0.742913001
15.856,0.746823069
15.864,0.748778104
15.872,0.747800587
15.88,0.742913001
15.888,0.73313783
15.896,0.720430108
15.904,0.704789834
15.912,0.687194526
15.92,0.667644184
15.928,0.650048876
15.936,0.633431085
15.944,0.616813294
15.952,0.602150538
15.96,0.589442815
15.968,0.578690127
15.976,0.571847507
15.984,0.565982405
15.992,0.563049853
16,0.561094819
16.008,0.559139785
16.016,0.558162268
16.024,0.556207234
16.032,0.553274682
16.04,0.550342131
16.048,0.545454545
16.056,0.539589443
16.064,0.529814272
16.072,0.520039101
16.08,0.513196481
16.088,0.50342131
16.096,0.493646139
16.104,0.483870968
16.112,0.474095797
16.12,0.464320626
16.128,0.456500489
16.136,0.449657869
16.144,0.441837732
16.152,0.434017595
16.16,0.426197458
16.168,0.419354839
16.176,0.411534702
16.184,0.405669599
16.192,0.399804497
16.2,0.394916911
16.208,0.389051808
16.216,0.384164223
16.224,0.381231672
16.232,0.37829912
16.24,0.375366569
16.248,0.372434018
16.256,0.369501466
16.264,0.366568915
16.272,0.363636364
16.28,0.360703812
16.288,0.357771261
16.296,0.355816227
16.304,0.352883675
16.312,0.350928641
16.32,0.34799609
16.328,0.346041056
16.336,0.345063539
16.344,0.343108504
16.352,0.34115347
16.36,0.338220919
16.368,0.336265885
16.376,0.333333333
16.384,0.330400782
16.392,0.328445748
16.4,0.325513196
16.408,0.322580645
16.416,0.320625611
16.424,0.318670577
16.432,0.31769306
16.44,0.316715543
16.448,0.315738025
16.456,0.313782991
16.464,0.312805474
16.472,0.311827957
16.48,0.309872923
16.488,0.308895406
16.496,0.306940371
16.504,0.305962854
16.512,0.304985337
16.52,0.303030303
16.528,0.302052786
16.536,0.302052786
16.544,0.301075269
16.552,0.300097752
16.56,0.298142717
16.568,0.2971652
16.576,0.295210166
16.584,0.292277615
16.592,0.290322581
16.6,0.288367546
16.608,0.288367546
16.616,0.291300098
16.624,0.2971652
16.632,0.306940371
16.64,0.324535679
16.648,0.349951124
16.656,0.383186706
16.664,0.424242424
16.672,0.470185728
16.68,0.521016618
16.688,0.571847507
16.696,0.620723363
16.704,0.663734115
16.712,0.699902248
16.72,0.725317693
16.728,0.740957967
16.736,0.752688172
16.744,0.757575758
16.752,0.75659824
16.76,0.750733138
16.768,0.742913001
16.776,0.734115347
16.784,0.725317693
16.792,0.718475073
16.8,0.712609971
16.808,0.709677419
16.816,0.708699902
16.824,0.709677419
16.832,0.710654936
16.84,0.715542522
16.848,0.721407625
16.856,0.727272727
16.864,0.732160313
16.872,0.735092864
16.88,0.734115347
16.888,0.731182796
16.896,0.723362659
16.904,0.711632454
16.912,0.696969697
16.92,0.681329423
16.928,0.66568915
16.936,0.647116325
16.944,0.6285435
16.952,0.610948192
16.96,0.594330401
16.968,0.580645161
16.976,0.568914956
16.984,0.560117302
16.992,0.554252199
17,0.551319648
17.008,0.549364614
17.016,0.54740958
17.024,0.546432063
17.032,0.544477028
17.04,0.541544477
17.048,0.537634409
17.056,0.53372434
17.064,0.527859238
17.072,0.521016618
17.08,0.513196481
17.088,0.502443793
17.096,0.491691105
17.104,0.483870968
17.112,0.475073314
17.12,0.46627566
17.128,0.449657869
17.136,0.428152493
17.144,0.412512219
17.152,0.399804497
17.16,0.390029326
17.168,0.381231672
17.176,0.373411535
17.184,0.366568915
17.192,0.359726295
17.2,0.353861193
17.208,0.34799609
17.216,0.343108504
17.224,0.340175953
17.232,0.336265885
17.24,0.333333333
17.248,0.329423265
17.256,0.326490714
17.264,0.323558162
17.272,0.321603128
17.28,0.318670577
17.288,0.316715543
17.296,0.313782991
17.304,0.311827957
17.312,0.308895406
17.32,0.306940371
17.328,0.305962854
17.336,0.30400782
17.344,0.302052786
17.352,0.300097752
17.36,0.298142717
17.368,0.296187683
17.376,0.294232649
17.384,0.291300098
17.392,0.288367546
17.4,0.285434995
17.408,0.283479961
17.416,0.281524927
17.424,0.28054741
17.432,0.279569892
17.44,0.278592375
17.448,0.275659824
17.456,0.27370479
17.464,0.271749756
17.472,0.268817204
17.48,0.26686217
17.488,0.264907136
17.496,0.263929619
17.504,0.262952102
17.512,0.262952102
17.52,0.262952102
17.528,0.262952102
17.536,0.262952102
17.544,0.262952102
17.552,0.261974585
17.56,0.261974585
17.568,0.260997067
17.576,0.259042033
17.584,0.258064516
17.592,0.257086999
17.6,0.255131965
17.608,0.253176931
17.616,0.251221896
17.624,0.250244379
17.632,0.251221896
17.64,0.252199413
17.648,0.257086999
17.656,0.265884653
17.664,0.281524927
17.672,0.304985337
17.68,0.336265885
17.688,0.375366569
17.696,0.420332356
17.704,0.470185728
17.712,0.521994135
17.72,0.565004888
17.728,0.603128055
17.736,0.639296188
17.744,0.671554252
17.752,0.695014663
17.76,0.711632454
17.768,0.71945259
17.776,0.720430108
17.784,0.716520039
17.792,0.708699902
17.8,0.699902248
17.808,0.690127077
17.816,0.681329423
17.824,0.673509286
17.832,0.668621701
17.84,0.664711632
17.848,0.664711632
17.856,0.666666667
17.864,0.671554252
17.872,0.677419355
17.88,0.683284457
17.888,0.688172043
17.896,0.691104594
17.904,0.692082111
17.912,0.688172043
17.92,0.681329423
17.928,0.672531769
17.936,0.659824047
17.944,0.644183773
17.952,0.626588465
17.96,0.607038123
17.968,0.588465298
17.976,0.57086999
17.984,0.555229717
17.992,0.542521994
18,0.531769306
18.008,0.523949169
18.016,0.518084066
18.024,0.515151515
18.032,0.512218964
18.04,0.51026393
18.048,0.509286413
18.056,0.507331378
18.064,0.504398827
18.072,0.499511241
18.08,0.493646139
18.088,0.486803519
18.096,0.478983382
18.104,0.470185728
18.112,0.45943304
18.12,0.449657869
18.128,0.441837732
18.136,0.433040078
18.144,0.42228739
18.152,0.411534702
18.16,0.400782014
18.168,0.389051808
18.176,0.379276637
18.184,0.369501466
18.192,0.359726295
18.2,0.350928641
18.208,0.344086022
18.216,0.336265885
18.224,0.330400782
18.232,0.325513196
18.24,0.321603128
18.248,0.316715543
18.256,0.311827957
18.264,0.306940371
18.272,0.303030303
18.28,0.299120235
18.288,0.295210166
18.296,0.292277615
18.304,0.289345064
18.312,0.286412512
18.32,0.284457478
18.328,0.283479961
18.336,0.281524927
18.344,0.279569892
18.352,0.276637341
18.36,0.27370479
18.368,0.270772239
18.376,0.267839687
18.384,0.265884653
18.392,0.262952102
18.4,0.260997067
18.408,0.258064516
18.416,0.256109482
18.424,0.254154448
18.432,0.252199413
18.44,0.250244379
18.448,0.248289345
18.456,0.245356794
18.464,0.24340176
18.472,0.240469208
18.48,0.238514174
18.488,0.235581623
18.496,0.232649071
18.504,0.230694037
18.512,0.228739003
18.52,0.227761486
18.528,0.226783969
18.536,0.225806452
18.544,0.224828935
18.552,0.223851417
18.56,0.2228739
18.568,0.221896383
18.576,0.220918866
18.584,0.219941349
18.592,0.217986315
18.6,0.217008798
18.608,0.215053763
18.616,0.214076246
18.624,0.214076246
18.632,0.213098729
18.64,0.211143695
18.648,0.209188661
18.656,0.208211144
18.664,0.207233627
18.672,0.209188661
18.68,0.214076246
18.688,0.224828935
18.696,0.241446725
18.704,0.26686217
18.712,0.300097752
18.72,0.335288368
18.728,0.372434018
18.736,0.419354839
18.744,0.470185728
18.752,0.521994135
18.76,0.569892473
18.768,0.611925709
18.776,0.64516129
18.784,0.669599218
18.792,0.684261975
18.8,0.690127077
18.808,0.688172043
18.816,0.68230694
18.824,0.672531769
18.832,0.660801564
18.84,0.647116325
18.848,0.635386119
18.856,0.624633431
18.864,0.615835777
18.872,0.611925709
18.88,0.609970674
18.888,0.611925709
18.896,0.616813294
18.904,0.622678397
18.912,0.6285435
18.92,0.632453568
18.928,0.634408602
18.936,0.634408602
18.944,0.631476051
18.952,0.625610948
18.96,0.615835777
18.968,0.602150538
18.976,0.586510264
18.984,0.568914956
18.992,0.551319648
19,0.534701857
19.008,0.520039101
19.016,0.508308895
19.024,0.499511241
19.032,0.492668622
19.04,0.487781036
19.048,0.484848485
19.056,0.481915934
19.064,0.480938416
19.072,0.479960899
19.08,0.478005865
19.088,0.476050831
19.096,0.47311828
19.104,0.469208211
19.112,0.463343109
19.12,0.458455523
19.128,0.45259042
19.136,0.441837732
19.144,0.432062561
19.152,0.425219941
19.16,0.416422287
19.168,0.407624633
19.176,0.406647116
19.184,0.410557185
19.192,0.408602151
19.2,0.402737048
19.208,0.396871945
19.216,0.39198436
19.224,0.387096774
19.232,0.381231672
19.24,0.376344086
19.248,0.3714565
19.256,0.367546432
19.264,0.363636364
19.272,0.361681329
19.28,0.359726295
19.288,0.357771261
19.296,0.355816227
19.304,0.353861193
19.312,0.352883675
19.32,0.351906158
19.328,0.351906158
19.336,0.350928641
19.344,0.349951124
19.352,0.349951124
19.36,0.348973607
19.368,0.348973607
19.376,0.348973607
19.384,0.348973607
19.392,0.348973607
19.4,0.34799609
19.408,0.347018573
19.416,0.347018573
19.424,0.347018573
19.432,0.347018573
19.44,0.346041056
19.448,0.345063539
19.456,0.345063539
19.464,0.345063539
19.472,0.345063539
19.48,0.345063539
19.488,0.345063539
19.496,0.345063539
19.504,0.346041056
19.512,0.346041056
19.52,0.347018573
19.528,0.34799609
19.536,0.348973607
19.544,0.349951124
19.552,0.350928641
19.56,0.350928641
19.568,0.351906158
19.576,0.351906158
19.584,0.351906158
19.592,0.351906158
19.6,0.351906158
19.608,0.351906158
19.616,0.350928641
19.624,0.350928641
19.632,0.349951124
19.64,0.349951124
19.648,0.350928641
19.656,0.353861193
19.664,0.360703812
19.672,0.373411535
19.68,0.405669599
19.688,0.434995112
19.696,0.472140762
19.704,0.536656891
19.712,0.576735093
19.72,0.613880743
19.728,0.653958944
19.736,0.696969697
19.744,0.732160313
19.752,0.752688172
19.76,0.768328446
19.768,0.7771261
19.776,0.776148583
19.784,0.77028348
19.792,0.757575758
19.8,0.746823069
19.808,0.737047898
19.816,0.728250244
19.824,0.721407625
19.832,0.716520039
19.84,0.714565005
19.848,0.714565005
19.856,0.718475073
19.864,0.721407625
19.872,0.725317693
19.88,0.728250244
19.888,0.728250244
19.896,0.724340176
19.904,0.718475073
19.912,0.709677419
19.92,0.696969697
19.928,0.68230694
19.936,0.66568915
19.944,0.649071359
19.952,0.631476051
19.96,0.615835777
19.968,0.602150538
19.976,0.589442815
19.984,0.579667644
19.992,0.573802542
20,0.568914956
20.008,0.565982405
20.016,0.563049853
20.024,0.561094819
20.032,0.559139785
20.04,0.556207234
20.048,0.552297165
20.056,0.548387097
20.064,0.539589443
20.072,0.532746823
20.08,0.524926686
20.088,0.518084066
20.096,0.51026393
20.104,0.502443793
20.112,0.493646139
20.12,0.483870968
20.128,0.472140762
20.136,0.462365591
20.144,0.455522972
20.152,0.447702835
20.16,0.439882698
20.168,0.433040078
20.176,0.426197458
20.184,0.420332356
20.192,0.416422287
20.2,0.411534702
20.208,0.405669599
20.216,0.400782014
20.224,0.395894428
20.232,0.39198436
20.24,0.387096774
20.248,0.384164223
20.256,0.380254154
20.264,0.377321603
20.272,0.374389052
20.28,0.3714565
20.288,0.368523949
20.296,0.367546432
20.304,0.365591398
20.312,0.363636364
20.32,0.361681329
20.328,0.359726295
20.336,0.357771261
20.344,0.355816227
20.352,0.352883675
20.36,0.350928641
20.368,0.348973607
20.376,0.346041056
20.384,0.344086022
20.392,0.343108504
20.4,0.34115347
20.408,0.339198436
20.416,0.336265885
20.424,0.33431085
20.432,0.332355816
20.44,0.330400782
20.448,0.327468231
20.456,0.325513196
20.464,0.323558162
20.472,0.321603128
20.48,0.320625611
20.488,0.319648094
20.496,0.318670577
20.504,0.31769306
20.512,0.316715543
20.52,0.315738025
20.528,0.314760508
20.536,0.313782991
20.544,0.311827957
20.552,0.31085044
20.56,0.309872923
20.568,0.307917889
20.576,0.306940371
20.584,0.305962854
20.592,0.305962854
20.6,0.304985337
20.608,0.303030303
20.616,0.301075269
20.624,0.299120235
20.632,0.298142717
20.64,0.299120235
20.648,0.30400782
20.656,0.314760508
20.664,0.331378299
20.672,0.355816227
20.68,0.395894428
20.688,0.433040078
20.696,0.465298143
20.704,0.507331378
20.712,0.554252199
20.72,0.602150538
20.728,0.647116325
20.736,0.691104594
20.744,0.725317693
20.752,0.744868035
20.76,0.75659824
20.768,0.762463343
20.776,0.758553275
20.784,0.752688172
20.792,0.746823069
20.8,0.738025415
20.808,0.729227761
20.816,0.720430108
20.824,0.714565005
20.832,0.710654936
20.84,0.709677419
20.848,0.711632454
20.856,0.715542522
20.864,0.720430108
20.872,0.72629521
20.88,0.730205279
20.888,0.73313783
20.896,0.736070381
20.904,0.736070381
20.912,0.73313783
20.92,0.729227761
20.928,0.721407625
20.936,0.708699902
20.944,0.694037146
20.952,0.676441838
20.96,0.657869013
20.968,0.638318671
20.976,0.619745846
20.984,0.604105572
20.992,0.591397849
21,0.579667644
21.008,0.569892473
21.016,0.563049853
21.024,0.558162268
21.032,0.554252199
21.04,0.552297165
21.048,0.550342131
21.056,0.548387097
21.064,0.544477028
21.072,0.54056696
21.08,0.537634409
21.088,0.53372434
21.096,0.525904203
21.104,0.517106549
21.112,0.51026393
21.12,0.499511241
21.128,0.48973607
21.136,0.481915934
21.144,0.47311828
21.152,0.462365591
21.16,0.451612903
21.168,0.443792766
21.176,0.434995112
21.184,0.427174976
21.192,0.408602151
21.2,0.384164223
21.208,0.368523949
21.216,0.356793744
21.224,0.348973607
21.232,0.340175953
21.24,0.332355816
21.248,0.325513196
21.256,0.320625611
21.264,0.315738025
21.272,0.31085044
21.28,0.306940371
21.288,0.303030303
21.296,0.299120235
21.304,0.296187683
21.312,0.293255132
21.32,0.290322581
21.328,0.285434995
21.336,0.283479961
21.344,0.28054741
21.352,0.276637341
21.36,0.27370479
21.368,0.270772239
21.376,0.267839687
21.384,0.265884653
21.392,0.263929619
21.4,0.260997067
21.408,0.258064516
21.416,0.255131965
21.424,0.252199413
21.432,0.249266862
21.44,0.246334311
21.448,0.24340176
21.456,0.241446725
21.464,0.238514174
21.472,0.23655914
21.48,0.235581623
21.488,0.233626588
21.496,0.230694037
21.504,0.228739003
21.512,0.226783969
21.52,0.223851417
21.528,0.221896383
21.536,0.219941349
21.544,0.217986315
21.552,0.216031281
21.56,0.215053763
21.568,0.213098729
21.576,0.213098729
21.584,0.213098729
21.592,0.213098729
21.6,0.212121212
21.608,0.210166178
21.616,0.209188661
21.624,0.207233627
21.632,0.205278592
21.64,0.203323558
21.648,0.202346041
21.656,0.204301075
21.664,0.209188661
21.672,0.217986315
21.68,0.231671554
21.688,0.253176931
21.696,0.282502444
21.704,0.320625611
21.712,0.365591398
21.72,0.41544477
21.728,0.467253177
21.736,0.519061584
21.744,0.566959922
21.752,0.608993157
21.76,0.642228739
21.768,0.66568915
21.776,0.679374389
21.784,0.684261975
21.792,0.683284457
21.8,0.678396872
21.808,0.670576735
21.816,0.659824047
21.824,0.648093842
21.832,0.636363636
21.84,0.627565982
21.848,0.620723363
21.856,0.616813294
21.864,0.615835777
21.872,0.616813294
21.88,0.618768328
21.888,0.622678397
21.896,0.6285435
21.904,0.634408602
21.912,0.639296188
21.92,0.641251222
21.928,0.640273705
21.936,0.634408602
21.944,0.625610948
21.952,0.612903226
21.96,0.596285435
21.968,0.578690127
21.976,0.562072336
21.984,0.546432063
21.992,0.530791789
22,0.516129032
22.008,0.50342131
22.016,0.493646139
22.024,0.485826002
22.032,0.480938416
22.04,0.477028348
22.048,0.476050831
22.056,0.474095797
22.064,0.47311828
22.072,0.471163245
22.08,0.469208211
22.088,0.46627566
22.096,0.462365591
22.104,0.456500489
22.112,0.450635386
22.12,0.442815249
22.128,0.434017595
22.136,0.425219941
22.144,0.414467253
22.152,0.404692082
22.16,0.393939394
22.168,0.38514174
22.176,0.377321603
22.184,0.368523949
22.192,0.359726295
22.2,0.351906158
22.208,0.344086022
22.216,0.337243402
22.224,0.331378299
22.232,0.325513196
22.24,0.320625611
22.248,0.316715543
22.256,0.312805474
22.264,0.308895406
22.272,0.305962854
22.28,0.30400782
22.288,0.302052786
22.296,0.300097752
22.304,0.2971652
22.312,0.296187683
22.32,0.295210166
22.328,0.294232649
22.336,0.293255132
22.344,0.292277615
22.352,0.290322581
22.36,0.289345064
22.368,0.289345064
22.376,0.289345064
22.384,0.288367546
22.392,0.287390029
22.4,0.286412512
22.408,0.285434995
22.416,0.284457478
22.424,0.282502444
22.432,0.281524927
22.44,0.279569892
22.448,0.278592375
22.456,0.277614858
22.464,0.277614858
22.472,0.276637341
22.48,0.277614858
22.488,0.276637341
22.496,0.276637341
22.504,0.275659824
22.512,0.274682307
22.52,0.27370479
22.528,0.271749756
22.536,0.270772239
22.544,0.269794721
22.552,0.268817204
22.56,0.26686217
22.568,0.26686217
22.576,0.26686217
22.584,0.26686217
22.592,0.265884653
22.6,0.264907136
22.608,0.263929619
22.616,0.261974585
22.624,0.260997067
22.632,0.26001955
22.64,0.259042033
22.648,0.260997067
22.656,0.26686217
22.664,0.277614858
22.672,0.292277615
22.68,0.311827957
22.688,0.34115347
22.696,0.37829912
22.704,0.42228739
22.712,0.471163245
22.72,0.521994135
22.728,0.572825024
22.736,0.618768328
22.744,0.65884653
22.752,0.691104594
22.76,0.713587488
22.768,0.72629521
22.776,0.731182796
22.784,0.731182796
22.792,0.727272727
22.8,0.718475073
22.808,0.708699902
22.816,0.696969697
22.824,0.687194526
22.832,0.678396872
22.84,0.673509286
22.848,0.670576735
22.856,0.671554252
22.864,0.674486804
22.872,0.677419355
22.88,0.680351906
22.888,0.685239492
22.896,0.68914956
22.904,0.692082111
22.912,0.692082111
22.92,0.68914956
22.928,0.683284457
22.936,0.672531769
22.944,0.65884653
22.952,0.643206256
22.96,0.625610948
22.968,0.608993157
22.976,0.594330401
22.984,0.578690127
22.992,0.565004888
23,0.553274682
23.008,0.544477028
23.016,0.537634409
23.024,0.532746823
23.032,0.529814272
23.04,0.52688172
23.048,0.523949169
23.056,0.521994135
23.064,0.519061584
23.072,0.516129032
23.08,0.512218964
23.088,0.506353861
23.096,0.500488759
23.104,0.492668622
23.112,0.483870968
23.12,0.475073314
23.128,0.465298143
23.136,0.455522972
23.144,0.445747801
23.152,0.434995112
23.16,0.425219941
23.168,0.417399804
23.176,0.409579668
23.184,0.401759531
23.192,0.392961877
23.2,0.386119257
23.208,0.37829912
23.216,0.3714565
23.224,0.364613881
23.232,0.368523949
23.24,0.377321603
23.248,0.379276637
23.256,0.37829912
23.264,0.376344086
23.272,0.374389052
23.28,0.372434018
23.288,0.370478983
23.296,0.367546432
23.304,0.364613881
23.312,0.361681329
23.32,0.358748778
23.328,0.356793744
23.336,0.35483871
23.344,0.352883675
23.352,0.349951124
23.36,0.34799609
23.368,0.347018573
23.376,0.345063539
23.384,0.344086022
23.392,0.34115347
23.4,0.339198436
23.408,0.337243402
23.416,0.33431085
23.424,0.332355816
23.432,0.329423265
23.44,0.326490714
23.448,0.324535679
23.456,0.321603128
23.464,0.319648094
23.472,0.318670577
23.48,0.31769306
23.488,0.316715543
23.496,0.314760508
23.504,0.312805474
23.512,0.31085044
23.52,0.309872923
23.528,0.307917889
23.536,0.306940371
23.544,0.305962854
23.552,0.30400782
23.56,0.303030303
23.568,0.302052786
23.576,0.302052786
23.584,0.301075269
23.592,0.300097752
23.6,0.299120235
23.608,0.2971652
23.616,0.296187683
23.624,0.294232649
23.632,0.292277615
23.64,0.290322581
23.648,0.289345064
23.656,0.289345064
23.664,0.291300098
23.672,0.2971652
23.68,0.305962854
23.688,0.321603128
23.696,0.345063539
23.704,0.375366569
23.712,0.413489736
23.72,0.456500489
23.728,0.502443793
23.736,0.549364614
23.744,0.592375367
23.752,0.631476051
23.76,0.663734115
23.768,0.686217009
23.776,0.699902248
23.784,0.708699902
23.792,0.711632454
23.8,0.710654936
23.808,0.704789834
23.816,0.696969697
23.824,0.68914956
23.832,0.680351906
23.84,0.673509286
23.848,0.668621701
23.856,0.66568915
23.864,0.66568915
23.872,0.666666667
23.88,0.668621701
23.888,0.672531769
23.896,0.677419355
23.904,0.683284457
23.912,0.688172043
23.92,0.691104594
23.928,0.691104594
23.936,0.687194526
23.944,0.680351906
23.952,0.670576735
23.96,0.656891496
23.968,0.643206256
23.976,0.6285435
23.984,0.611925709
23.992,0.594330401
24,0.578690127
24.008,0.563049853
24.016,0.550342131
24.024,0.539589443
24.032,0.532746823
24.04,0.52688172
24.048,0.522971652
24.056,0.521016618
24.064,0.519061584
24.072,0.517106549
24.08,0.516129032
24.088,0.513196481
24.096,0.51026393
24.104,0.506353861
24.112,0.500488759
24.12,0.493646139
24.128,0.486803519
24.136,0.478983382
24.144,0.470185728
24.152,0.461388074
24.16,0.45259042
24.168,0.444770283
24.176,0.437927664
24.184,0.430107527
24.192,0.421309873
24.2,0.413489736
24.208,0.406647116
24.216,0.398826979
24.224,0.39198436
24.232,0.38514174
24.24,0.379276637
24.248,0.373411535
24.256,0.368523949
24.264,0.364613881
24.272,0.361681329
24.28,0.358748778
24.288,0.35483871
24.296,0.351906158
24.304,0.348973607
24.312,0.345063539
24.32,0.342130987
24.328,0.339198436
24.336,0.336265885
24.344,0.33431085
24.352,0.331378299
24.36,0.329423265
24.368,0.327468231
24.376,0.326490714
24.384,0.325513196
24.392,0.323558162
24.4,0.321603128
24.408,0.319648094
24.416,0.316715543
24.424,0.314760508
24.432,0.312805474
24.44,0.309872923
24.448,0.306940371
24.456,0.304985337
24.464,0.303030303
24.472,0.302052786
24.48,0.301075269
24.488,0.299120235
24.496,0.2971652
24.504,0.294232649
24.512,0.292277615
24.52,0.289345064
24.528,0.287390029
24.536,0.285434995
24.544,0.284457478
24.552,0.283479961
24.56,0.282502444
24.568,0.281524927
24.576,0.281524927
24.584,0.281524927
24.592,0.28054741
24.6,0.279569892
24.608,0.278592375
24.616,0.277614858
24.624,0.276637341
24.632,0.275659824
24.64,0.274682307
24.648,0.27370479
24.656,0.271749756
24.664,0.270772239
24.672,0.270772239
24.68,0.269794721
24.688,0.268817204
24.696,0.268817204
24.704,0.271749756
24.712,0.279569892
24.72,0.293255132
24.728,0.313782991
24.736,0.342130987
24.744,0.377321603
24.752,0.417399804
24.76,0.461388074
24.768,0.501466276
24.776,0.536656891
24.784,0.572825024
24.792,0.607038123
24.8,0.634408602
24.808,0.654936461
24.816,0.667644184
24.824,0.673509286
24.832,0.673509286
24.84,0.668621701
24.848,0.661779081
24.856,0.652981427
24.864,0.64516129
24.872,0.637341153
24.88,0.631476051
24.888,0.626588465
24.896,0.624633431
24.904,0.625610948
24.912,0.6285435
24.92,0.634408602
24.928,0.640273705
24.936,0.646138807
24.944,0.651026393
24.952,0.653958944
24.96,0.654936461
24.968,0.65200391
24.976,0.647116325
24.984,0.638318671
24.992,0.627565982
25,0.612903226
25.008,0.597262952
25.016,0.580645161
25.024,0.56402737
25.032,0.54740958
25.04,0.53372434
25.048,0.521016618
25.056,0.511241447
25.064,0.50342131
25.072,0.498533724
25.08,0.494623656
25.088,0.491691105
25.096,0.488758553
25.104,0.485826002
25.112,0.481915934
25.12,0.478005865
25.128,0.47311828
25.136,0.467253177
25.144,0.460410557
25.152,0.453567937
25.16,0.444770283
25.168,0.437927664
25.176,0.430107527
25.184,0.42228739
25.192,0.414467253
25.2,0.405669599
25.208,0.396871945
25.216,0.388074291
25.224,0.380254154
25.232,0.3714565
25.24,0.364613881
25.248,0.356793744
25.256,0.349951124
25.264,0.344086022
25.272,0.339198436
25.28,0.331378299
25.288,0.321603128
25.296,0.313782991
25.304,0.307917889
25.312,0.303030303
25.32,0.298142717
25.328,0.294232649
25.336,0.290322581
25.344,0.287390029
25.352,0.284457478
25.36,0.28054741
25.368,0.277614858
25.376,0.275659824
25.384,0.27370479
25.392,0.270772239
25.4,0.26686217
25.408,0.263929619
25.416,0.260997067
25.424,0.258064516
25.432,0.255131965
25.44,0.252199413
25.448,0.250244379
25.456,0.247311828
25.464,0.246334311
25.472,0.245356794
25.48,0.24340176
25.488,0.241446725
25.496,0.238514174
25.504,0.23655914
25.512,0.233626588
25.52,0.230694037
25.528,0.228739003
25.536,0.226783969
25.544,0.224828935
25.552,0.2228739
25.56,0.220918866
25.568,0.219941349
25.576,0.219941349
25.584,0.218963832
25.592,0.217008798
25.6,0.215053763
25.608,0.213098729
25.616,0.211143695
25.624,0.209188661
25.632,0.207233627
25.64,0.205278592
25.648,0.204301075
25.656,0.202346041
25.664,0.202346041
25.672,0.203323558
25.68,0.202346041
25.688,0.200391007
25.696,0.198435973
25.704,0.195503421
25.712,0.193548387
25.72,0.191593353
25.728,0.193548387
25.736,0.198435973
25.744,0.210166178
25.752,0.228739003
25.76,0.251221896
25.768,0.278592375
25.776,0.314760508
25.784,0.357771261
25.792,0.404692082
25.8,0.45259042
25.808,0.497556207
25.816,0.537634409
25.824,0.571847507
25.832,0.596285435
25.84,0.612903226
25.848,0.619745846
25.856,0.620723363
25.864,0.615835777
25.872,0.608993157
25.88,0.598240469
25.888,0.585532747
25.896,0.573802542
25.904,0.563049853
25.912,0.554252199
25.92,0.549364614
25.928,0.546432063
25.936,0.54740958
25.944,0.551319648
25.952,0.557184751
25.96,0.562072336
25.968,0.566959922
25.976,0.571847507
25.984,0.575757576
25.992,0.576735093
26,0.574780059
26.008,0.567937439
26.016,0.559139785
26.024,0.546432063
26.032,0.532746823
26.04,0.517106549
26.048,0.502443793
26.056,0.488758553
26.064,0.478005865
26.072,0.470185728
26.08,0.463343109
26.088,0.45943304
26.096,0.456500489
26.104,0.455522972
26.112,0.454545455
26.12,0.454545455
26.128,0.454545455
26.136,0.453567937
26.144,0.451612903
26.152,0.448680352
26.16,0.445747801
26.168,0.442815249
26.176,0.437927664
26.184,0.432062561
26.192,0.424242424
26.2,0.417399804
26.208,0.409579668
26.216,0.400782014
26.224,0.392961877
26.232,0.38514174
26.24,0.377321603
26.248,0.370478983
26.256,0.363636364
26.264,0.358748778
26.272,0.353861193
26.28,0.348973607
26.288,0.344086022
26.296,0.340175953
26.304,0.335288368
26.312,0.331378299
26.32,0.328445748
26.328,0.325513196
26.336,0.322580645
26.344,0.320625611
26.352,0.318670577
26.36,0.31769306
26.368,0.316715543
26.376,0.315738025
26.384,0.313782991
26.392,0.311827957
26.4,0.31085044
26.408,0.309872923
26.416,0.308895406
26.424,0.308895406
26.432,0.307917889
26.44,0.307917889
26.448,0.307917889
26.456,0.307917889
26.464,0.308895406
26.472,0.309872923
26.48,0.309872923
26.488,0.309872923
26.496,0.31085044
26.504,0.31085044
26.512,0.311827957
26.52,0.311827957
26.528,0.312805474
26.536,0.313782991
26.544,0.314760508
26.552,0.315738025
26.56,0.31769306
26.568,0.318670577
26.576,0.320625611
26.584,0.321603128
26.592,0.322580645
26.6,0.324535679
26.608,0.325513196
26.616,0.325513196
26.624,0.326490714
26.632,0.326490714
26.64,0.325513196
26.648,0.324535679
26.656,0.323558162
26.664,0.322580645
26.672,0.322580645
26.68,0.321603128
26.688,0.323558162
26.696,0.327468231
26.704,0.336265885
26.712,0.349951124
26.72,0.370478983
26.728,0.397849462
26.736,0.432062561
26.744,0.470185728
26.752,0.512218964
26.76,0.548387097
26.768,0.580645161
26.776,0.613880743
26.784,0.644183773
26.792,0.667644184
26.8,0.684261975
26.808,0.693059629
26.816,0.695014663
26.824,0.693059629
26.832,0.686217009
26.84,0.677419355
26.848,0.667644184
26.856,0.65884653
26.864,0.650048876
26.872,0.643206256
26.88,0.639296188
26.888,0.637341153
26.896,0.637341153
26.904,0.640273705
26.912,0.64516129
26.92,0.650048876
26.928,0.654936461
26.936,0.65884653
26.944,0.660801564
26.952,0.65884653
26.96,0.655913978
26.968,0.650048876
26.976,0.641251222
26.984,0.629521017
26.992,0.616813294
27,0.602150538
27.008,0.588465298
27.016,0.574780059
27.024,0.563049853
27.032,0.553274682
27.04,0.546432063
27.048,0.542521994
27.056,0.538611926
27.064,0.536656891
27.072,0.534701857
27.08,0.53372434
27.088,0.532746823
27.096,0.530791789
27.104,0.527859238
27.112,0.524926686
27.12,0.520039101
27.128,0.514173998
27.136,0.508308895
27.144,0.501466276
27.152,0.493646139
27.16,0.486803519
27.168,0.479960899
27.176,0.471163245
27.184,0.463343109
27.192,0.454545455
27.2,0.446725318
27.208,0.437927664
27.216,0.430107527
27.224,0.423264907
27.232,0.416422287
27.24,0.409579668
27.248,0.402737048
27.256,0.396871945
27.264,0.39198436
27.272,0.388074291
27.28,0.384164223
27.288,0.380254154
27.296,0.376344086
27.304,0.372434018
27.312,0.368523949
27.32,0.365591398
27.328,0.375366569
27.336,0.393939394
27.344,0.400782014
27.352,0.403714565
27.36,0.403714565
27.368,0.403714565
27.376,0.402737048
27.384,0.401759531
27.392,0.399804497
27.4,0.396871945
27.408,0.394916911
27.416,0.39198436
27.424,0.389051808
27.432,0.386119257
27.44,0.383186706
27.448,0.381231672
27.456,0.379276637
27.464,0.377321603
27.472,0.376344086
27.48,0.374389052
27.488,0.3714565
27.496,0.368523949
27.504,0.366568915
27.512,0.363636364
27.52,0.361681329
27.528,0.358748778
27.536,0.356793744
27.544,0.35483871
27.552,0.352883675
27.56,0.351906158
27.568,0.350928641
27.576,0.349951124
27.584,0.34799609
27.592,0.347018573
27.6,0.346041056
27.608,0.345063539
27.616,0.344086022
27.624,0.342130987
27.632,0.340175953
27.64,0.339198436
27.648,0.337243402
27.656,0.335288368
27.664,0.33431085
27.672,0.333333333
27.68,0.331378299
27.688,0.330400782
27.696,0.332355816
27.704,0.337243402
27.712,0.347018573
27.72,0.363636364
27.728,0.387096774
27.736,0.417399804
27.744,0.454545455
27.752,0.495601173
27.76,0.532746823
27.768,0.566959922
27.776,0.604105572
27.784,0.639296188
27.792,0.668621701
27.8,0.690127077
27.808,0.704789834
27.816,0.712609971
27.824,0.714565005
27.832,0.711632454
27.84,0.705767351
27.848,0.697947214
27.856,0.690127077
27.864,0.683284457
27.872,0.676441838
27.88,0.672531769
27.888,0.670576735
27.896,0.671554252
27.904,0.675464321
27.912,0.681329423
27.92,0.688172043
27.928,0.695014663
27.936,0.701857283
27.944,0.707722385
27.952,0.711632454
27.96,0.711632454
27.968,0.709677419
27.976,0.704789834
27.984,0.696969697
27.992,0.686217009
28,0.673509286
28.008,0.65884653
28.016,0.643206256
28.024,0.627565982
28.032,0.612903226
28.04,0.600195503
28.048,0.589442815
28.056,0.581622678
28.064,0.576735093
28.072,0.572825024
28.08,0.57086999
28.088,0.569892473
28.096,0.569892473
28.104,0.569892473
28.112,0.569892473
28.12,0.567937439
28.128,0.565004888
28.136,0.561094819
28.144,0.556207234
28.152,0.550342131
28.16,0.544477028
28.168,0.538611926
28.176,0.531769306
28.184,0.523949169
28.192,0.516129032
28.2,0.508308895
28.208,0.499511241
28.216,0.491691105
28.224,0.483870968
28.232,0.476050831
28.24,0.469208211
28.248,0.461388074
28.256,0.456500489
28.264,0.451612903
28.272,0.446725318
28.28,0.441837732
28.288,0.436950147
28.296,0.432062561
28.304,0.427174976
28.312,0.423264907
28.32,0.419354839
28.328,0.41544477
28.336,0.412512219
28.344,0.408602151
28.352,0.405669599
28.36,0.403714565
28.368,0.402737048
28.376,0.400782014
28.384,0.398826979
28.392,0.395894428
28.4,0.393939394
28.408,0.391006843
28.416,0.389051808
28.424,0.386119257
28.432,0.384164223
28.44,0.382209189
28.448,0.379276637
28.456,0.377321603
28.464,0.375366569
28.472,0.373411535
28.48,0.3714565
28.488,0.368523949
28.496,0.366568915
28.504,0.364613881
28.512,0.362658847
28.52,0.359726295
28.528,0.357771261
28.536,0.35483871
28.544,0.352883675
28.552,0.350928641
28.56,0.349951124
28.568,0.349951124
28.576,0.348973607
28.584,0.347018573
28.592,0.345063539
28.6,0.344086022
28.608,0.342130987
28.616,0.340175953
28.624,0.339198436
28.632,0.337243402
28.64,0.336265885
28.648,0.335288368
28.656,0.335288368
28.664,0.33431085
28.672,0.333333333
28.68,0.332355816
28.688,0.330400782
28.696,0.329423265
28.704,0.327468231
28.712,0.326490714
28.72,0.327468231
28.728,0.330400782
28.736,0.338220919
28.744,0.350928641
28.752,0.369501466
28.76,0.391006843
28.768,0.416422287
28.776,0.449657869
28.784,0.488758553
28.792,0.528836755
28.8,0.569892473
28.808,0.607038123
28.816,0.640273705
28.824,0.66568915
28.832,0.683284457
28.84,0.695014663
28.848,0.698924731
28.856,0.697947214
28.864,0.694037146
28.872,0.687194526
28.88,0.678396872
28.888,0.669599218
28.896,0.662756598
28.904,0.656891496
28.912,0.652981427
28.92,0.65200391
28.928,0.653958944
28.936,0.657869013
28.944,0.664711632
28.952,0.671554252
28.96,0.677419355
28.968,0.68230694
28.976,0.687194526
28.984,0.690127077
28.992,0.690127077
29,0.687194526
29.008,0.681329423
29.016,0.672531769
29.024,0.660801564
29.032,0.647116325
29.04,0.632453568
29.048,0.617790811
29.056,0.605083089
29.064,0.594330401
29.072,0.58455523
29.08,0.576735093
29.088,0.57086999
29.096,0.566959922
29.104,0.565004888
29.112,0.565004888
29.12,0.56402737
29.128,0.56402737
29.136,0.563049853
29.144,0.562072336
29.152,0.560117302
29.16,0.557184751
29.168,0.553274682
29.176,0.549364614
29.184,0.543499511
29.192,0.536656891
29.2,0.529814272
29.208,0.521994135
29.216,0.514173998
29.224,0.506353861
29.232,0.499511241
29.24,0.491691105
29.248,0.483870968
29.256,0.478005865
29.264,0.472140762
29.272,0.46627566
29.28,0.460410557
29.288,0.454545455
29.296,0.449657869
29.304,0.443792766
29.312,0.438905181
29.32,0.434995112
29.328,0.431085044
29.336,0.427174976
29.344,0.423264907
29.352,0.420332356
29.36,0.418377322
29.368,0.416422287
29.376,0.400782014
29.384,0.377321603
29.392,0.364613881
29.4,0.356793744
29.408,0.350928641
29.416,0.347018573
29.424,0.343108504
29.432,0.340175953
29.44,0.336265885
29.448,0.333333333
29.456,0.331378299
29.464,0.329423265
29.472,0.327468231
29.48,0.324535679
29.488,0.320625611
29.496,0.31769306
29.504,0.314760508
29.512,0.31085044
29.52,0.307917889
29.528,0.304985337
29.536,0.302052786
29.544,0.299120235
29.552,0.298142717
29.56,0.2971652
29.568,0.295210166
29.576,0.293255132
29.584,0.291300098
29.592,0.288367546
29.6,0.286412512
29.608,0.284457478
29.616,0.281524927
29.624,0.28054741
29.632,0.278592375
29.64,0.276637341
29.648,0.275659824
29.656,0.275659824
29.664,0.275659824
29.672,0.275659824
29.68,0.274682307
29.688,0.27370479
29.696,0.272727273
29.704,0.272727273
29.712,0.271749756
29.72,0.269794721
29.728,0.267839687
29.736,0.264907136
29.744,0.262952102
29.752,0.261974585
29.76,0.260997067
29.768,0.260997067
29.776,0.262952102
29.784,0.267839687
29.792,0.278592375
29.8,0.296187683
29.808,0.322580645
29.816,0.357771261
29.824,0.399804497
29.832,0.447702835
29.84,0.498533724
29.848,0.549364614
29.856,0.591397849
29.864,0.626588465
29.872,0.65884653
29.88,0.685239492
29.888,0.7028348
29.896,0.712609971
29.904,0.714565005
29.912,0.709677419
29.92,0.700879765
29.928,0.690127077
29.936,0.679374389
29.944,0.668621701
29.952,0.659824047
29.96,0.653958944
29.968,0.650048876
29.976,0.650048876
29.984,0.652981427
29.992,0.65884653
30,0.666666667
30.008,0.675464321
30.016,0.684261975
30.024,0.691104594
30.032,0.69599218
30.04,0.697947214
30.048,0.695014663
30.056,0.690127077
30.064,0.681329423
30.072,0.669599218
30.08,0.655913978
30.088,0.639296188
30.096,0.622678397
30.104,0.606060606
30.112,0.591397849
30.12,0.579667644
30.128,0.569892473
30.136,0.563049853
30.144,0.558162268
30.152,0.555229717
30.16,0.554252199
30.168,0.554252199
30.176,0.554252199
30.184,0.554252199
30.192,0.552297165
30.2,0.549364614
30.208,0.545454545
30.216,0.54056696
30.224,0.53372434
30.232,0.525904203
30.24,0.518084066
30.248,0.509286413
30.256,0.501466276
30.264,0.493646139
30.272,0.484848485
30.28,0.475073314
30.288,0.464320626
30.296,0.453567937
30.304,0.442815249
30.312,0.433040078
30.32,0.423264907
30.328,0.414467253
30.336,0.405669599
30.344,0.396871945
30.352,0.391006843
30.36,0.38514174
30.368,0.37829912
30.376,0.372434018
30.384,0.367546432
30.392,0.361681329
30.4,0.355816227
30.408,0.350928641
30.416,0.347018573
30.424,0.342130987
30.432,0.338220919
30.44,0.33431085
30.448,0.329423265
30.456,0.326490714
30.464,0.323558162
30.472,0.320625611
30.48,0.316715543
30.488,0.313782991
30.496,0.31085044
30.504,0.306940371
30.512,0.303030303
30.52,0.300097752
30.528,0.2971652
30.536,0.294232649
30.544,0.290322581
30.552,0.288367546
30.56,0.287390029
30.568,0.285434995
30.576,0.282502444
30.584,0.279569892
30.592,0.276637341
30.6,0.272727273
30.608,0.269794721
30.616,0.265884653
30.624,0.262952102
30.632,0.259042033
30.64,0.256109482
30.648,0.253176931
30.656,0.251221896
30.664,0.250244379
30.672,0.249266862
30.68,0.247311828
30.688,0.245356794
30.696,0.24340176
30.704,0.241446725
30.712,0.239491691
30.72,0.237536657
30.728,0.235581623
30.736,0.233626588
30.744,0.230694037
30.752,0.22971652
30.76,0.228739003
30.768,0.227761486
30.776,0.225806452
30.784,0.223851417
30.792,0.220918866
30.8,0.218963832
30.808,0.217008798
30.816,0.215053763
30.824,0.215053763
30.832,0.217986315
30.84,0.224828935
30.848,0.238514174
30.856,0.256109482
30.864,0.279569892
30.872,0.311827957
30.88,0.352883675
30.888,0.399804497
30.896,0.449657869
30.904,0.499511241
30.912,0.546432063
30.92,0.587487781
30.928,0.619745846
30.936,0.643206256
30.944,0.657869013
30.952,0.663734115
30.96,0.662756598
30.968,0.656891496
30.976,0.646138807
30.984,0.633431085
30.992,0.619745846
31,0.606060606
31.008,0.594330401
31.016,0.586510264
31.024,0.581622678
31.032,0.580645161
31.04,0.583577713
31.048,0.589442815
31.056,0.595307918
31.064,0.601173021
31.072,0.608993157
31.08,0.615835777
31.088,0.62170088
31.096,0.623655914
31.104,0.620723363
31.112,0.61485826
31.12,0.605083089
31.128,0.593352884
31.136,0.578690127
31.144,0.56402737
31.152,0.550342131
31.16,0.539589443
31.168,0.528836755
31.176,0.521016618
31.184,0.515151515
31.192,0.512218964
31.2,0.51026393
31.208,0.51026393
31.216,0.511241447
31.224,0.511241447
31.232,0.511241447
31.24,0.511241447
31.248,0.51026393
31.256,0.508308895
31.264,0.504398827
31.272,0.499511241
31.28,0.493646139
31.288,0.487781036
31.296,0.479960899
31.304,0.472140762
31.312,0.463343109
31.32,0.454545455
31.328,0.445747801
31.336,0.43597263
31.344,0.426197458
31.352,0.418377322
31.36,0.411534702
31.368,0.403714565
31.376,0.396871945
31.384,0.389051808
31.392,0.382209189
31.4,0.376344086
31.408,0.370478983
31.416,0.365591398
31.424,0.369501466
31.432,0.37829912
31.44,0.380254154
31.448,0.380254154
31.456,0.380254154
31.464,0.37829912
31.472,0.375366569
31.48,0.3714565
31.488,0.368523949
31.496,0.365591398
31.504,0.362658847
31.512,0.360703812
31.52,0.358748778
31.528,0.357771261
31.536,0.355816227
31.544,0.35483871
31.552,0.353861193
31.56,0.35483871
31.568,0.353861193
31.576,0.353861193
31.584,0.352883675
31.592,0.351906158
31.6,0.351906158
31.608,0.350928641
31.616,0.349951124
31.624,0.349951124
31.632,0.350928641
31.64,0.350928641
31.648,0.351906158
31.656,0.353861193
31.664,0.35483871
31.672,0.355816227
31.68,0.356793744
31.688,0.356793744
31.696,0.356793744
31.704,0.356793744
31.712,0.356793744
31.72,0.357771261
31.728,0.357771261
31.736,0.357771261
31.744,0.357771261
31.752,0.358748778
31.76,0.359726295
31.768,0.358748778
31.776,0.358748778
31.784,0.357771261
31.792,0.357771261
31.8,0.360703812
31.808,0.365591398
31.816,0.376344086
31.824,0.393939394
31.832,0.417399804
31.84,0.449657869
31.848,0.481915934
31.856,0.517106549
31.864,0.561094819
31.872,0.608993157
31.88,0.657869013
31.888,0.7028348
31.896,0.741935484
31.904,0.773216031
31.912,0.794721408
31.92,0.80742913
31.928,0.811339198
31.936,0.809384164
31.944,0.801564027
31.952,0.791788856
31.96,0.780058651
31.968,0.767350929
31.976,0.75659824
31.984,0.746823069
31.992,0.740957967
32,0.737047898
32.008,0.737047898
32.016,0.739002933
32.024,0.743890518
32.032,0.750733138
32.04,0.75659824
32.048,0.760508309
32.056,0.762463343
32.064,0.762463343
32.072,0.760508309
32.08,0.755620723
32.088,0.747800587
32.096,0.738025415
32.104,0.725317693
32.112,0.711632454
32.12,0.697947214
32.128,0.685239492
32.136,0.673509286
32.144,0.663734115
32.152,0.656891496
32.16,0.65200391
32.168,0.648093842
32.176,0.646138807
32.184,0.644183773
32.192,0.643206256
32.2,0.641251222
32.208,0.640273705
32.216,0.637341153
32.224,0.634408602
32.232,0.629521017
32.24,0.622678397
32.248,0.616813294
32.256,0.609970674
32.264,0.602150538
32.272,0.594330401
32.28,0.58455523
32.288,0.575757576
32.296,0.565982405
32.304,0.557184751
32.312,0.549364614
32.32,0.54056696
32.328,0.531769306
32.336,0.522971652
32.344,0.515151515
32.352,0.508308895
32.36,0.502443793
32.368,0.495601173
32.376,0.48973607
32.384,0.483870968
32.392,0.478983382
32.4,0.474095797
32.408,0.469208211
32.416,0.464320626
32.424,0.45943304
32.432,0.455522972
32.44,0.451612903
32.448,0.448680352
32.456,0.445747801
32.464,0.443792766
32.472,0.440860215
32.48,0.437927664
32.488,0.434995112
32.496,0.431085044
32.504,0.428152493
32.512,0.425219941
32.52,0.421309873
32.528,0.418377322
32.536,0.41544477
32.544,0.412512219
32.552,0.410557185
32.56,0.407624633
32.568,0.405669599
32.576,0.402737048
32.584,0.400782014
32.592,0.397849462
32.6,0.393939394
32.608,0.391006843
32.616,0.387096774
32.624,0.383186706
32.632,0.380254154
32.64,0.377321603
32.648,0.375366569
32.656,0.373411535
32.664,0.3714565
32.672,0.369501466
32.68,0.367546432
32.688,0.366568915
32.696,0.364613881
32.704,0.362658847
32.712,0.360703812
32.72,0.358748778
32.728,0.356793744
32.736,0.35483871
32.744,0.352883675
32.752,0.351906158
32.76,0.350928641
32.768,0.348973607
32.776,0.347018573
32.784,0.344086022
32.792,0.34115347
32.8,0.338220919
32.808,0.337243402
32.816,0.340175953
32.824,0.34799609
32.832,0.361681329
32.84,0.384164223
32.848,0.409579668
32.856,0.439882698
32.864,0.478983382
32.872,0.525904203
32.88,0.575757576
32.888,0.624633431
32.896,0.671554252
32.904,0.711632454
32.912,0.744868035
32.92,0.768328446
32.928,0.782991202
32.936,0.789833822
32.944,0.789833822
32.952,0.784946237
32.96,0.7771261
32.968,0.767350929
32.976,0.757575758
32.984,0.748778104
32.992,0.741935484
33,0.738025415
33.008,0.738025415
33.016,0.73998045
33.024,0.745845552
33.032,0.753665689
33.04,0.762463343
33.048,0.77028348
33.056,0.776148583
33.064,0.782991202
33.072,0.787878788
33.08,0.789833822
33.088,0.787878788
33.096,0.782013685
33.104,0.773216031
33.112,0.760508309
33.12,0.744868035
33.128,0.728250244
33.136,0.709677419
33.144,0.694037146
33.152,0.679374389
33.16,0.66568915
33.168,0.653958944
33.176,0.64516129
33.184,0.639296188
33.192,0.635386119
33.2,0.633431085
33.208,0.632453568
33.216,0.631476051
33.224,0.630498534
33.232,0.6285435
33.24,0.625610948
33.248,0.622678397
33.256,0.617790811
33.264,0.612903226
33.272,0.606060606
33.28,0.598240469
33.288,0.590420332
33.296,0.581622678
33.304,0.571847507
33.312,0.562072336
33.32,0.551319648
33.328,0.541544477
33.336,0.531769306
33.344,0.522971652
33.352,0.515151515
33.36,0.507331378
33.368,0.499511241
33.376,0.491691105
33.384,0.483870968
33.392,0.478005865
33.4,0.471163245
33.408,0.465298143
33.416,0.45943304
33.424,0.454545455
33.432,0.449657869
33.44,0.445747801
33.448,0.442815249
33.456,0.439882698
33.464,0.436950147
33.472,0.412512219
33.48,0.377321603
33.488,0.357771261
33.496,0.346041056
33.504,0.338220919
33.512,0.333333333
33.52,0.328445748
33.528,0.325513196
33.536,0.322580645
33.544,0.320625611
33.552,0.318670577
33.56,0.316715543
33.568,0.313782991
33.576,0.31085044
33.584,0.306940371
33.592,0.303030303
33.6,0.300097752
33.608,0.296187683
33.616,0.293255132
33.624,0.289345064
33.632,0.286412512
33.64,0.282502444
33.648,0.28054741
33.656,0.278592375
33.664,0.275659824
33.672,0.272727273
33.68,0.270772239
33.688,0.267839687
33.696,0.265884653
33.704,0.263929619
33.712,0.262952102
33.72,0.260997067
33.728,0.259042033
33.736,0.257086999
33.744,0.255131965
33.752,0.255131965
33.76,0.253176931
33.768,0.251221896
33.776,0.250244379
33.784,0.248289345
33.792,0.246334311
33.8,0.245356794
33.808,0.242424242
33.816,0.240469208
33.824,0.237536657
33.832,0.235581623
33.84,0.235581623
33.848,0.237536657
33.856,0.242424242
33.864,0.253176931
33.872,0.269794721
33.88,0.294232649
33.888,0.328445748
33.896,0.369501466
33.904,0.417399804
33.912,0.468230694
33.92,0.521016618
33.928,0.569892473
33.936,0.613880743
33.944,0.647116325
33.952,0.670576735
33.96,0.68914956
33.968,0.699902248
33.976,0.704789834
33.984,0.7028348
33.992,0.696969697
34,0.688172043
34.008,0.678396872
34.016,0.669599218
34.024,0.662756598
34.032,0.65884653
34.04,0.657869013
34.048,0.65884653
34.056,0.660801564
34.064,0.666666667
34.072,0.674486804
34.08,0.683284457
34.088,0.693059629
34.096,0.700879765
34.104,0.706744868
34.112,0.709677419
34.12,0.708699902
34.128,0.703812317
34.136,0.695014663
34.144,0.684261975
34.152,0.670576735
34.16,0.653958944
34.168,0.636363636
34.176,0.617790811
34.184,0.601173021
34.192,0.58455523
34.2,0.571847507
34.208,0.561094819
34.216,0.553274682
34.224,0.548387097
34.232,0.545454545
34.24,0.543499511
34.248,0.541544477
34.256,0.54056696
34.264,0.539589443
34.272,0.538611926
34.28,0.535679374
34.288,0.532746823
34.296,0.52688172
34.304,0.521016618
34.312,0.513196481
34.32,0.504398827
34.328,0.494623656
34.336,0.484848485
34.344,0.475073314
34.352,0.467253177
34.36,0.457478006
34.368,0.447702835
34.376,0.438905181
34.384,0.42913001
34.392,0.420332356
34.4,0.411534702
34.408,0.402737048
34.416,0.394916911
34.424,0.387096774
34.432,0.380254154
34.44,0.373411535
34.448,0.368523949
34.456,0.364613881
34.464,0.361681329
34.472,0.357771261
34.48,0.352883675
34.488,0.348973607
34.496,0.345063539
34.504,0.340175953
34.512,0.336265885
34.52,0.332355816
34.528,0.328445748
34.536,0.324535679
34.544,0.322580645
34.552,0.321603128
34.56,0.319648094
34.568,0.31769306
34.576,0.314760508
34.584,0.311827957
34.592,0.308895406
34.6,0.304985337
34.608,0.302052786
34.616,0.298142717
34.624,0.295210166
34.632,0.292277615
34.64,0.289345064
34.648,0.286412512
34.656,0.285434995
34.664,0.282502444
34.672,0.279569892
34.68,0.276637341
34.688,0.27370479
34.696,0.270772239
34.704,0.267839687
34.712,0.264907136
34.72,0.261974585
34.728,0.26001955
34.736,0.257086999
34.744,0.256109482
34.752,0.255131965
34.76,0.255131965
34.768,0.254154448
34.776,0.252199413
34.784,0.251221896
34.792,0.249266862
34.8,0.248289345
34.808,0.246334311
34.816,0.245356794
34.824,0.24340176
34.832,0.242424242
34.84,0.240469208
34.848,0.239491691
34.856,0.239491691
34.864,0.238514174
34.872,0.23655914
34.88,0.233626588
34.888,0.231671554
34.896,0.22971652
34.904,0.230694037
34.912,0.234604106
34.92,0.244379277
34.928,0.26001955
34.936,0.284457478
34.944,0.311827957
34.952,0.343108504
34.96,0.383186706
34.968,0.431085044
34.976,0.480938416
34.984,0.529814272
34.992,0.575757576
35,0.613880743
35.008,0.644183773
35.016,0.664711632
35.024,0.676441838
35.032,0.680351906
35.04,0.677419355
35.048,0.670576735
35.056,0.659824047
35.064,0.648093842
35.072,0.636363636
35.08,0.624633431
35.088,0.616813294
35.096,0.611925709
35.104,0.610948192
35.112,0.612903226
35.12,0.617790811
35.128,0.624633431
35.136,0.633431085
35.144,0.639296188
35.152,0.64516129
35.16,0.650048876
35.168,0.653958944
35.176,0.654936461
35.184,0.651026393
35.192,0.643206256
35.2,0.632453568
35.208,0.617790811
35.216,0.601173021
35.224,0.582600196
35.232,0.565004888
35.24,0.549364614
35.248,0.535679374
35.256,0.523949169
35.264,0.513196481
35.272,0.506353861
35.28,0.501466276
35.288,0.498533724
35.296,0.498533724
35.304,0.497556207
35.312,0.49657869
35.32,0.495601173
35.328,0.493646139
35.336,0.490713587
35.344,0.486803519
35.352,0.481915934
35.36,0.476050831
35.368,0.468230694
35.376,0.45943304
35.384,0.449657869
35.392,0.438905181
35.4,0.42913001
35.408,0.418377322
35.416,0.408602151
35.424,0.398826979
35.432,0.389051808
35.44,0.380254154
35.448,0.372434018
35.456,0.364613881
35.464,0.356793744
35.472,0.348973607
35.48,0.34115347
35.488,0.33431085
35.496,0.327468231
35.504,0.321603128
35.512,0.316715543
35.52,0.31769306
35.528,0.321603128
35.536,0.322580645
35.544,0.321603128
35.552,0.320625611
35.56,0.31769306
35.568,0.314760508
35.576,0.311827957
35.584,0.307917889
35.592,0.30400782
35.6,0.300097752
35.608,0.2971652
35.616,0.293255132
35.624,0.289345064
35.632,0.286412512
35.64,0.283479961
35.648,0.282502444
35.656,0.279569892
35.664,0.276637341
35.672,0.27370479
35.68,0.269794721
35.688,0.26686217
35.696,0.263929619
35.704,0.26001955
35.712,0.256109482
35.72,0.253176931
35.728,0.250244379
35.736,0.247311828
35.744,0.246334311
35.752,0.245356794
35.76,0.24340176
35.768,0.241446725
35.776,0.239491691
35.784,0.237536657
35.792,0.234604106
35.8,0.232649071
35.808,0.22971652
35.816,0.226783969
35.824,0.224828935
35.832,0.221896383
35.84,0.220918866
35.848,0.220918866
35.856,0.219941349
35.864,0.217986315
35.872,0.215053763
35.88,0.213098729
35.888,0.210166178
35.896,0.207233627
35.904,0.206256109
35.912,0.206256109
35.92,0.210166178
35.928,0.218963832
35.936,0.233626588
35.944,0.253176931
35.952,0.277614858
35.96,0.312805474
35.968,0.355816227
35.976,0.405669599
35.984,0.45943304
35.992,0.514173998
36,0.565982405
36.008,0.611925709
36.016,0.649071359
36.024,0.677419355
36.032,0.69599218
36.04,0.704789834
36.048,0.705767351
36.056,0.701857283
36.064,0.694037146
36.072,0.683284457
36.08,0.671554252
36.088,0.660801564
36.096,0.65200391
36.104,0.646138807
36.112,0.644183773
36.12,0.646138807
36.128,0.651026393
36.136,0.659824047
36.144,0.667644184
36.152,0.675464321
36.16,0.684261975
36.168,0.693059629
36.176,0.698924731
36.184,0.701857283
36.192,0.700879765
36.2,0.696969697
36.208,0.688172043
36.216,0.677419355
36.224,0.664711632
36.232,0.65200391
36.24,0.639296188
36.248,0.6285435
36.256,0.619745846
36.264,0.612903226
36.272,0.60801564
36.28,0.605083089
36.288,0.605083089
36.296,0.607038123
36.304,0.608993157
36.312,0.610948192
36.32,0.612903226
36.328,0.612903226
36.336,0.611925709
36.344,0.608993157
36.352,0.605083089
36.36,0.600195503
36.368,0.594330401
36.376,0.586510264
36.384,0.578690127
36.392,0.569892473
36.4,0.560117302
36.408,0.550342131
36.416,0.539589443
36.424,0.529814272
36.432,0.520039101
36.44,0.511241447
36.448,0.502443793
36.456,0.494623656
36.464,0.486803519
36.472,0.478983382
36.48,0.472140762
36.488,0.465298143
36.496,0.458455523
36.504,0.45259042
36.512,0.446725318
36.52,0.440860215
36.528,0.434995112
36.536,0.42913001
36.544,0.424242424
36.552,0.420332356
36.56,0.416422287
36.568,0.411534702
36.576,0.406647116
36.584,0.401759531
36.592,0.397849462
36.6,0.393939394
36.608,0.391006843
36.616,0.387096774
36.624,0.383186706
36.632,0.379276637
36.64,0.376344086
36.648,0.373411535
36.656,0.370478983
36.664,0.367546432
36.672,0.363636364
36.68,0.360703812
36.688,0.357771261
36.696,0.35483871
36.704,0.350928641
36.712,0.34799609
36.72,0.346041056
36.728,0.343108504
36.736,0.34115347
36.744,0.340175953
36.752,0.338220919
36.76,0.335288368
36.768,0.333333333
36.776,0.330400782
36.784,0.326490714
36.792,0.323558162
36.8,0.321603128
36.808,0.319648094
36.816,0.316715543
36.824,0.314760508
36.832,0.311827957
36.84,0.309872923
36.848,0.307917889
36.856,0.30400782
36.864,0.301075269
36.872,0.2971652
36.88,0.296187683
36.888,0.2971652
36.896,0.302052786
36.904,0.313782991
36.912,0.333333333
36.92,0.360703812
36.928,0.397849462
36.936,0.434017595
36.944,0.474095797
36.952,0.521994135
36.96,0.573802542
36.968,0.624633431
36.976,0.671554252
36.984,0.711632454
36.992,0.741935484
37,0.762463343
37.008,0.773216031
37.016,0.7771261
37.024,0.773216031
37.032,0.766373412
37.04,0.757575758
37.048,0.748778104
37.056,0.740957967
37.064,0.735092864
37.072,0.730205279
37.08,0.729227761
37.088,0.731182796
37.096,0.735092864
37.104,0.741935484
37.112,0.748778104
37.12,0.757575758
37.128,0.764418377
37.136,0.769305963
37.144,0.771260997
37.152,0.771260997
37.16,0.769305963
37.168,0.762463343
37.176,0.752688172
37.184,0.739002933
37.192,0.722385142
37.2,0.703812317
37.208,0.683284457
37.216,0.662756598
37.224,0.64516129
37.232,0.6285435
37.24,0.615835777
37.248,0.606060606
37.256,0.598240469
37.264,0.593352884
37.272,0.590420332
37.28,0.589442815
37.288,0.588465298
37.296,0.588465298
37.304,0.587487781
37.312,0.58455523
37.32,0.580645161
37.328,0.575757576
37.336,0.568914956
37.344,0.562072336
37.352,0.554252199
37.36,0.544477028
37.368,0.534701857
37.376,0.523949169
37.384,0.512218964
37.392,0.500488759
37.4,0.488758553
37.408,0.478005865
37.416,0.467253177
37.424,0.457478006
37.432,0.447702835
37.44,0.439882698
37.448,0.433040078
37.456,0.425219941
37.464,0.417399804
37.472,0.409579668
37.48,0.402737048
37.488,0.396871945
37.496,0.391006843
37.504,0.38514174
37.512,0.380254154
37.52,0.376344086
37.528,0.372434018
37.536,0.369501466
37.544,0.366568915
37.552,0.362658847
37.56,0.358748778
37.568,0.360703812
37.576,0.366568915
37.584,0.367546432
37.592,0.367546432
37.6,0.366568915
37.608,0.364613881
37.616,0.362658847
37.624,0.359726295
37.632,0.356793744
37.64,0.35483871
37.648,0.352883675
37.656,0.350928641
37.664,0.34799609
37.672,0.345063539
37.68,0.342130987
37.688,0.339198436
37.696,0.336265885
37.704,0.333333333
37.712,0.331378299
37.72,0.328445748
37.728,0.326490714
37.736,0.325513196
37.744,0.324535679
37.752,0.322580645
37.76,0.321603128
37.768,0.319648094
37.776,0.31769306
37.784,0.316715543
37.792,0.314760508
37.8,0.312805474
37.808,0.31085044
37.816,0.308895406
37.824,0.307917889
37.832,0.305962854
37.84,0.304985337
37.848,0.30400782
37.856,0.302052786
37.864,0.300097752
37.872,0.2971652
37.88,0.295210166
37.888,0.294232649
37.896,0.296187683
37.904,0.301075269
37.912,0.31085044
37.92,0.328445748
37.928,0.351906158
37.936,0.379276637
37.944,0.408602151
37.952,0.448680352
37.96,0.493646139
37.968,0.54056696
37.976,0.587487781
37.984,0.630498534
37.992,0.666666667
38,0.694037146
38.008,0.713587488
38.016,0.725317693
38.024,0.729227761
38.032,0.727272727
38.04,0.722385142
38.048,0.715542522
38.056,0.707722385
38.064,0.699902248
38.072,0.693059629
38.08,0.68914956
38.088,0.687194526
38.096,0.688172043
38.104,0.691104594
38.112,0.696969697
38.12,0.703812317
38.128,0.711632454
38.136,0.717497556
38.144,0.721407625
38.152,0.725317693
38.16,0.727272727
38.168,0.725317693
38.176,0.720430108
38.184,0.712609971
38.192,0.700879765
38.2,0.686217009
38.208,0.669599218
38.216,0.652981427
38.224,0.636363636
38.232,0.619745846
38.24,0.606060606
38.248,0.595307918
38.256,0.585532747
38.264,0.57771261
38.272,0.572825024
38.28,0.568914956
38.288,0.566959922
38.296,0.565982405
38.304,0.565004888
38.312,0.563049853
38.32,0.561094819
38.328,0.558162268
38.336,0.554252199
38.344,0.549364614
38.352,0.544477028
38.36,0.537634409
38.368,0.529814272
38.376,0.521016618
38.384,0.512218964
38.392,0.502443793
38.4,0.492668622
38.408,0.482893451
38.416,0.47311828
38.424,0.464320626
38.432,0.454545455
38.44,0.446725318
38.448,0.440860215
38.456,0.434017595
38.464,0.427174976
38.472,0.420332356
38.48,0.41544477
38.488,0.409579668
38.496,0.404692082
38.504,0.399804497
38.512,0.394916911
38.52,0.391006843
38.528,0.386119257
38.536,0.383186706
38.544,0.380254154
38.552,0.377321603
38.56,0.373411535
38.568,0.370478983
38.576,0.368523949
38.584,0.364613881
38.592,0.361681329
38.6,0.358748778
38.608,0.355816227
38.616,0.352883675
38.624,0.350928641
38.632,0.348973607
38.64,0.34799609
38.648,0.347018573
38.656,0.344086022
38.664,0.342130987
38.672,0.339198436
38.68,0.336265885
38.688,0.333333333
38.696,0.330400782
38.704,0.327468231
38.712,0.325513196
38.72,0.322580645
38.728,0.320625611
38.736,0.319648094
38.744,0.318670577
38.752,0.316715543
38.76,0.314760508
38.768,0.311827957
38.776,0.309872923
38.784,0.307917889
38.792,0.305962854
38.8,0.304985337
38.808,0.303030303
38.816,0.302052786
38.824,0.300097752
38.832,0.300097752
38.84,0.300097752
38.848,0.299120235
38.856,0.298142717
38.864,0.2971652
38.872,0.296187683
38.88,0.295210166
38.888,0.293255132
38.896,0.291300098
38.904,0.289345064
38.912,0.286412512
38.92,0.285434995
38.928,0.285434995
38.936,0.289345064
38.944,0.295210166
38.952,0.306940371
38.96,0.324535679
38.968,0.350928641
38.976,0.384164223
38.984,0.425219941
38.992,0.471163245
39,0.520039101
39.008,0.567937439
39.016,0.612903226
39.024,0.65200391
39.032,0.680351906
39.04,0.699902248
39.048,0.714565005
39.056,0.722385142
39.064,0.725317693
39.072,0.722385142
39.08,0.716520039
39.088,0.707722385
39.096,0.698924731
39.104,0.691104594
39.112,0.685239492
39.12,0.680351906
39.128,0.679374389
39.136,0.679374389
39.144,0.680351906
39.152,0.685239492
39.16,0.692082111
39.168,0.699902248
39.176,0.707722385
39.184,0.713587488
39.192,0.716520039
39.2,0.717497556
39.208,0.713587488
39.216,0.706744868
39.224,0.69599218
39.232,0.683284457
39.24,0.670576735
39.248,0.655913978
39.256,0.640273705
39.264,0.624633431
39.272,0.609970674
39.28,0.597262952
39.288,0.586510264
39.296,0.57771261
39.304,0.571847507
39.312,0.567937439
39.32,0.565982405
39.328,0.56402737
39.336,0.563049853
39.344,0.561094819
39.352,0.559139785
39.36,0.556207234
39.368,0.552297165
39.376,0.546432063
39.384,0.54056696
39.392,0.53372434
39.4,0.525904203
39.408,0.517106549
39.416,0.508308895
39.424,0.499511241
39.432,0.490713587
39.44,0.481915934
39.448,0.47311828
39.456,0.464320626
39.464,0.455522972
39.472,0.447702835
39.48,0.439882698
39.488,0.432062561
39.496,0.425219941
39.504,0.418377322
39.512,0.412512219
39.52,0.406647116
39.528,0.400782014
39.536,0.396871945
39.544,0.393939394
39.552,0.391006843
39.56,0.387096774
39.568,0.383186706
39.576,0.380254154
39.584,0.376344086
39.592,0.373411535
39.6,0.370478983
39.608,0.368523949
39.616,0.358748778
39.624,0.346041056
39.632,0.340175953
39.64,0.336265885
39.648,0.332355816
39.656,0.328445748
39.664,0.324535679
39.672,0.320625611
39.68,0.31769306
39.688,0.314760508
39.696,0.311827957
39.704,0.308895406
39.712,0.304985337
39.72,0.302052786
39.728,0.300097752
39.736,0.298142717
39.744,0.2971652
39.752,0.296187683
39.76,0.294232649
39.768,0.291300098
39.776,0.288367546
39.784,0.285434995
39.792,0.283479961
39.8,0.28054741
39.808,0.278592375
39.816,0.276637341
39.824,0.274682307
39.832,0.27370479
39.84,0.27370479
39.848,0.272727273
39.856,0.271749756
39.864,0.269794721
39.872,0.268817204
39.88,0.267839687
39.888,0.267839687
39.896,0.26686217
39.904,0.265884653
39.912,0.264907136
39.92,0.263929619
39.928,0.262952102
39.936,0.261974585
39.944,0.261974585
39.952,0.260997067
39.96,0.258064516
39.968,0.255131965
39.976,0.252199413
39.984,0.250244379
39.992,0.249266862
40,0.251221896
40.008,0.259042033
40.016,0.272727273
40.024,0.294232649
40.032,0.319648094
40.04,0.349951124
40.048,0.390029326
40.056,0.436950147
40.064,0.487781036
40.072,0.539589443
40.08,0.588465298
40.088,0.632453568
40.096,0.668621701
40.104,0.695014663
40.112,0.711632454
40.12,0.71945259
40.128,0.720430108
40.136,0.715542522
40.144,0.707722385
40.152,0.697947214
40.16,0.686217009
40.168,0.675464321
40.176,0.66568915
40.184,0.659824047
40.192,0.655913978
40.2,0.655913978
40.208,0.65884653
40.216,0.664711632
40.224,0.671554252
40.232,0.677419355
40.24,0.68230694
40.248,0.687194526
40.256,0.691104594
40.264,0.692082111
40.272,0.68914956
40.28,0.68230694
40.288,0.671554252
40.296,0.656891496
40.304,0.639296188
40.312,0.620723363
40.32,0.602150538
40.328,0.585532747
40.336,0.57086999
40.344,0.557184751
40.352,0.546432063
40.36,0.538611926
40.368,0.532746823
40.376,0.528836755
40.384,0.52688172
40.392,0.524926686
40.4,0.523949169
40.408,0.521016618
40.416,0.518084066
40.424,0.513196481
40.432,0.508308895
40.44,0.502443793
40.448,0.495601173
40.456,0.487781036
40.464,0.478005865
40.472,0.469208211
40.48,0.458455523
40.488,0.448680352
40.496,0.437927664
40.504,0.428152493
40.512,0.417399804
40.52,0.407624633
40.528,0.399804497
40.536,0.39198436
40.544,0.38514174
40.552,0.377321603
40.56,0.369501466
40.568,0.361681329
40.576,0.353861193
40.584,0.347018573
40.592,0.34115347
40.6,0.335288368
40.608,0.330400782
40.616,0.325513196
40.624,0.321603128
40.632,0.31769306
40.64,0.314760508
40.648,0.311827957
40.656,0.306940371
40.664,0.303030303
40.672,0.300097752
40.68,0.296187683
40.688,0.293255132
40.696,0.290322581
40.704,0.286412512
40.712,0.283479961
40.72,0.28054741
40.728,0.277614858
40.736,0.275659824
40.744,0.27370479
40.752,0.270772239
40.76,0.267839687
40.768,0.264907136
40.776,0.261974585
40.784,0.258064516
40.792,0.255131965
40.8,0.252199413
40.808,0.249266862
40.816,0.246334311
40.824,0.244379277
40.832,0.242424242
40.84,0.242424242
40.848,0.240469208
40.856,0.238514174
40.864,0.235581623
40.872,0.233626588
40.88,0.230694037
40.888,0.228739003
40.896,0.226783969
40.904,0.224828935
40.912,0.223851417
40.92,0.221896383
40.928,0.221896383
40.936,0.221896383
40.944,0.220918866
40.952,0.219941349
40.96,0.218963832
40.968,0.216031281
40.976,0.214076246
40.984,0.211143695
40.992,0.208211144
41,0.206256109
41.008,0.205278592
41.016,0.208211144
41.024,0.216031281
41.032,0.226783969
41.04,0.24340176
41.048,0.268817204
41.056,0.302052786
41.064,0.344086022
41.072,0.392961877
41.08,0.445747801
41.088,0.499511241
41.096,0.551319648
41.104,0.598240469
41.112,0.637341153
41.12,0.666666667
41.128,0.684261975
41.136,0.693059629
41.144,0.69599218
41.152,0.692082111
41.16,0.683284457
41.168,0.671554252
41.176,0.657869013
41.184,0.644183773
41.192,0.632453568
41.2,0.623655914
41.208,0.618768328
41.216,0.616813294
41.224,0.618768328
41.232,0.62170088
41.24,0.626588465
41.248,0.632453568
41.256,0.640273705
41.264,0.646138807
41.272,0.650048876
41.28,0.65200391
41.288,0.649071359
41.296,0.643206256
41.304,0.634408602
41.312,0.622678397
41.32,0.608993157
41.328,0.595307918
41.336,0.583577713
41.344,0.57086999
41.352,0.561094819
41.36,0.553274682
41.368,0.54740958
41.376,0.545454545
41.384,0.545454545
41.392,0.546432063
41.4,0.548387097
41.408,0.551319648
41.416,0.552297165
41.424,0.553274682
41.432,0.553274682
41.44,0.551319648
41.448,0.549364614
41.456,0.544477028
41.464,0.539589443
41.472,0.53372434
41.48,0.527859238
41.488,0.520039101
41.496,0.512218964
41.504,0.504398827
41.512,0.495601173
41.52,0.486803519
41.528,0.478983382
41.536,0.47311828
41.544,0.46627566
41.552,0.45943304
41.56,0.453567937
41.568,0.447702835
41.576,0.441837732
41.584,0.436950147
41.592,0.433040078
41.6,0.428152493
41.608,0.424242424
41.616,0.421309873
41.624,0.417399804
41.632,0.414467253
41.64,0.412512219
41.648,0.410557185
41.656,0.408602151
41.664,0.41544477
41.672,0.427174976
41.68,0.432062561
41.688,0.433040078
41.696,0.432062561
41.704,0.431085044
41.712,0.42913001
41.72,0.426197458
41.728,0.424242424
41.736,0.421309873
41.744,0.418377322
41.752,0.416422287
41.76,0.413489736
41.768,0.411534702
41.776,0.408602151
41.784,0.406647116
41.792,0.404692082
41.8,0.402737048
41.808,0.399804497
41.816,0.397849462
41.824,0.395894428
41.832,0.393939394
41.84,0.392961877
41.848,0.391006843
41.856,0.389051808
41.864,0.386119257
41.872,0.384164223
41.88,0.382209189
41.888,0.380254154
41.896,0.377321603
41.904,0.375366569
41.912,0.373411535
41.92,0.3714565
41.928,0.369501466
41.936,0.367546432
41.944,0.365591398
41.952,0.362658847
41.96,0.359726295
41.968,0.356793744
41.976,0.353861193
41.984,0.353861193
41.992,0.356793744
42,0.365591398
42.008,0.380254154
42.016,0.402737048
42.024,0.434017595
42.032,0.46627566
42.04,0.501466276
42.048,0.545454545
42.056,0.594330401
42.064,0.644183773
42.072,0.691104594
42.08,0.732160313
42.088,0.765395894
42.096,0.789833822
42.104,0.804496579
42.112,0.811339198
42.12,0.811339198
42.128,0.806451613
42.136,0.799608993
42.144,0.789833822
42.152,0.781036168
42.16,0.772238514
42.168,0.765395894
42.176,0.760508309
42.184,0.759530792
42.192,0.761485826
42.2,0.766373412
42.208,0.772238514
42.216,0.779081134
42.224,0.783968719
42.232,0.787878788
42.24,0.791788856
42.248,0.792766373
42.256,0.790811339
42.264,0.784946237
42.272,0.775171065
42.28,0.761485826
42.288,0.745845552
42.296,0.728250244
42.304,0.709677419
42.312,0.691104594
42.32,0.673509286
42.328,0.659824047
42.336,0.648093842
42.344,0.637341153
42.352,0.629521017
42.36,0.622678397
42.368,0.618768328
42.376,0.615835777
42.384,0.613880743
42.392,0.611925709
42.4,0.609970674
42.408,0.607038123
42.416,0.603128055
42.424,0.598240469
42.432,0.592375367
42.44,0.585532747
42.448,0.57771261
42.456,0.568914956
42.464,0.560117302
42.472,0.550342131
42.48,0.539589443
42.488,0.529814272
42.496,0.519061584
42.504,0.508308895
42.512,0.498533724
42.52,0.488758553
42.528,0.480938416
42.536,0.474095797
42.544,0.46627566
42.552,0.45943304
42.56,0.451612903
42.568,0.444770283
42.576,0.437927664
42.584,0.432062561
42.592,0.427174976
42.6,0.421309873
42.608,0.416422287
42.616,0.411534702
42.624,0.407624633
42.632,0.404692082
42.64,0.401759531
42.648,0.398826979
42.656,0.395894428
42.664,0.392961877
42.672,0.390029326
42.68,0.387096774
42.688,0.384164223
42.696,0.381231672
42.704,0.37829912
42.712,0.375366569
42.72,0.3714565
42.728,0.368523949
42.736,0.366568915
42.744,0.364613881
42.752,0.361681329
42.76,0.358748778
42.768,0.356793744
42.776,0.353861193
42.784,0.350928641
42.792,0.34799609
42.8,0.345063539
42.808,0.342130987
42.816,0.339198436
42.824,0.337243402
42.832,0.335288368
42.84,0.33431085
42.848,0.332355816
42.856,0.330400782
42.864,0.327468231
42.872,0.325513196
42.88,0.323558162
42.888,0.321603128
42.896,0.319648094
42.904,0.31769306
42.912,0.316715543
42.92,0.314760508
42.928,0.313782991
42.936,0.314760508
42.944,0.313782991
42.952,0.313782991
42.96,0.312805474
42.968,0.311827957
42.976,0.31085044
42.984,0.309872923
42.992,0.307917889
43,0.304985337
43.008,0.303030303
43.016,0.302052786
43.024,0.303030303
43.032,0.306940371
43.04,0.315738025
43.048,0.331378299
43.056,0.35483871
43.064,0.387096774
43.072,0.427174976
43.08,0.475073314
43.088,0.527859238
43.096,0.581622678
43.104,0.634408602
43.112,0.68230694
43.12,0.722385142
43.128,0.750733138
43.136,0.769305963
43.144,0.782991202
43.152,0.789833822
43.16,0.789833822
43.168,0.784946237
43.176,0.7771261
43.184,0.767350929
43.192,0.757575758
43.2,0.748778104
43.208,0.742913001
43.216,0.73998045
43.224,0.739002933
43.232,0.739002933
43.24,0.742913001
43.248,0.749755621
43.256,0.758553275
43.264,0.767350929
43.272,0.775171065
43.28,0.781036168
43.288,0.783968719
43.296,0.782991202
43.304,0.778103617
43.312,0.769305963
43.32,0.75659824
43.328,0.741935484
43.336,0.72629521
43.344,0.707722385
43.352,0.68914956
43.36,0.669599218
43.368,0.652981427
43.376,0.637341153
43.384,0.625610948
43.392,0.616813294
43.4,0.610948192
43.408,0.606060606
43.416,0.603128055
43.424,0.601173021
43.432,0.598240469
43.44,0.596285435
43.448,0.593352884
43.456,0.589442815
43.464,0.585532747
43.472,0.579667644
43.48,0.572825024
43.488,0.565004888
43.496,0.556207234
43.504,0.54740958
43.512,0.537634409
43.52,0.52688172
43.528,0.517106549
43.536,0.508308895
43.544,0.498533724
43.552,0.488758553
43.56,0.479960899
43.568,0.470185728
43.576,0.461388074
43.584,0.45259042
43.592,0.444770283
43.6,0.437927664
43.608,0.431085044
43.616,0.424242424
43.624,0.420332356
43.632,0.41544477
43.64,0.411534702
43.648,0.406647116
43.656,0.402737048
43.664,0.398826979
43.672,0.393939394
43.68,0.390029326
43.688,0.386119257
43.696,0.383186706
43.704,0.380254154
43.712,0.364613881
43.72,0.342130987
43.728,0.330400782
43.736,0.323558162
43.744,0.318670577
43.752,0.314760508
43.76,0.311827957
43.768,0.307917889
43.776,0.304985337
43.784,0.302052786
43.792,0.299120235
43.8,0.296187683
43.808,0.293255132
43.816,0.290322581
43.824,0.288367546
43.832,0.287390029
43.84,0.286412512
43.848,0.283479961
43.856,0.281524927
43.864,0.278592375
43.872,0.276637341
43.88,0.27370479
43.888,0.270772239
43.896,0.268817204
43.904,0.26686217
43.912,0.264907136
43.92,0.262952102
43.928,0.262952102
43.936,0.261974585
43.944,0.260997067
43.952,0.26001955
43.96,0.258064516
43.968,0.257086999
43.976,0.255131965
43.984,0.255131965
43.992,0.254154448
44,0.254154448
44.008,0.253176931
44.016,0.252199413
44.024,0.252199413
44.032,0.252199413
44.04,0.251221896
44.048,0.250244379
44.056,0.249266862
44.064,0.247311828
44.072,0.246334311
44.08,0.244379277
44.088,0.242424242
44.096,0.240469208
44.104,0.239491691
44.112,0.241446725
44.12,0.244379277
44.128,0.252199413
44.136,0.264907136
44.144,0.284457478
44.152,0.311827957
44.16,0.347018573
44.168,0.391006843
44.176,0.439882698
44.184,0.491691105
44.192,0.543499511
44.2,0.592375367
44.208,0.635386119
44.216,0.671554252
44.224,0.695014663
44.232,0.709677419
44.24,0.71945259
44.248,0.722385142
44.256,0.71945259
44.264,0.712609971
44.272,0.703812317
44.28,0.693059629
44.288,0.68230694
44.296,0.673509286
44.304,0.667644184
44.312,0.66568915
44.32,0.664711632
44.328,0.66568915
44.336,0.669599218
44.344,0.676441838
44.352,0.685239492
44.36,0.693059629
44.368,0.699902248
44.376,0.704789834
44.384,0.705767351
44.392,0.703812317
44.4,0.698924731
44.408,0.68914956
44.416,0.675464321
44.424,0.661779081
44.432,0.646138807
44.44,0.6285435
44.448,0.610948192
44.456,0.594330401
44.464,0.578690127
44.472,0.565982405
44.48,0.556207234
44.488,0.548387097
44.496,0.543499511
44.504,0.54056696
44.512,0.538611926
44.52,0.535679374
44.528,0.53372434
44.536,0.531769306
44.544,0.527859238
44.552,0.523949169
44.56,0.518084066
44.568,0.511241447
44.576,0.504398827
44.584,0.495601173
44.592,0.486803519
44.6,0.476050831
44.608,0.46627566
44.616,0.455522972
44.624,0.445747801
44.632,0.436950147
44.64,0.427174976
44.648,0.417399804
44.656,0.407624633
44.664,0.398826979
44.672,0.390029326
44.68,0.381231672
44.688,0.373411535
44.696,0.365591398
44.704,0.357771261
44.712,0.350928641
44.72,0.345063539
44.728,0.340175953
44.736,0.335288368
44.744,0.330400782
44.752,0.325513196
44.76,0.321603128
44.768,0.31769306
44.776,0.313782991
44.784,0.309872923
44.792,0.305962854
44.8,0.303030303
44.808,0.300097752
44.816,0.296187683
44.824,0.293255132
44.832,0.291300098
44.84,0.289345064
44.848,0.286412512
44.856,0.284457478
44.864,0.281524927
44.872,0.278592375
44.88,0.274682307
44.888,0.271749756
44.896,0.268817204
44.904,0.265884653
44.912,0.262952102
44.92,0.260997067
44.928,0.259042033
44.936,0.257086999
44.944,0.254154448
44.952,0.252199413
44.96,0.249266862
44.968,0.246334311
44.976,0.244379277
44.984,0.241446725
44.992,0.238514174
45,0.235581623
45.008,0.232649071
45.016,0.22971652
45.024,0.228739003
45.032,0.227761486
45.04,0.225806452
45.048,0.224828935
45.056,0.223851417
45.064,0.221896383
45.072,0.220918866
45.08,0.220918866
45.088,0.218963832
45.096,0.217986315
45.104,0.217986315
45.112,0.217008798
45.12,0.216031281
45.128,0.217008798
45.136,0.216031281
45.144,0.215053763
45.152,0.212121212
45.16,0.210166178
45.168,0.207233627
45.176,0.205278592
45.184,0.204301075
45.192,0.206256109
45.2,0.213098729
45.208,0.225806452
45.216,0.246334311
45.224,0.270772239
45.232,0.299120235
45.24,0.338220919
45.248,0.384164223
45.256,0.434995112
45.264,0.486803519
45.272,0.537634409
45.28,0.583577713
45.288,0.62170088
45.296,0.651026393
45.304,0.671554252
45.312,0.68230694
45.32,0.684261975
45.328,0.681329423
45.336,0.673509286
45.344,0.662756598
45.352,0.649071359
45.36,0.636363636
45.368,0.624633431
45.376,0.61485826
45.384,0.60801564
45.392,0.606060606
45.4,0.607038123
45.408,0.610948192
45.416,0.616813294
45.424,0.622678397
45.432,0.627565982
45.44,0.633431085
45.448,0.637341153
45.456,0.639296188
45.464,0.638318671
45.472,0.632453568
45.48,0.623655914
45.488,0.610948192
45.496,0.596285435
45.504,0.579667644
45.512,0.563049853
45.52,0.54740958
45.528,0.534701857
45.536,0.521994135
45.544,0.511241447
45.552,0.50342131
45.56,0.498533724
45.568,0.494623656
45.576,0.493646139
45.584,0.492668622
45.592,0.491691105
45.6,0.490713587
45.608,0.488758553
45.616,0.485826002
45.624,0.481915934
45.632,0.478005865
45.64,0.472140762
45.648,0.464320626
45.656,0.456500489
45.664,0.447702835
45.672,0.438905181
45.68,0.42913001
45.688,0.419354839
45.696,0.409579668
45.704,0.398826979
45.712,0.389051808
45.72,0.381231672
45.728,0.374389052
45.736,0.366568915
45.744,0.359726295
45.752,0.351906158
45.76,0.355816227
45.768,0.364613881
45.776,0.366568915
45.784,0.365591398
45.792,0.362658847
45.8,0.358748778
45.808,0.35483871
45.816,0.352883675
45.824,0.350928641
45.832,0.34799609
45.84,0.345063539
45.848,0.342130987
45.856,0.339198436
45.864,0.336265885
45.872,0.333333333
45.88,0.330400782
45.888,0.327468231
45.896,0.325513196
45.904,0.322580645
45.912,0.320625611
45.92,0.319648094
45.928,0.318670577
45.936,0.316715543
45.944,0.315738025
45.952,0.313782991
45.96,0.311827957
45.968,0.309872923
45.976,0.307917889
45.984,0.305962854
45.992,0.304985337
46,0.303030303
46.008,0.301075269
46.016,0.300097752
46.024,0.300097752
46.032,0.299120235
46.04,0.298142717
46.048,0.298142717
46.056,0.2971652
46.064,0.2971652
46.072,0.2971652
46.08,0.2971652
46.088,0.2971652
46.096,0.2971652
46.104,0.2971652
46.112,0.2971652
46.12,0.298142717
46.128,0.299120235
46.136,0.300097752
46.144,0.301075269
46.152,0.302052786
46.16,0.303030303
46.168,0.30400782
46.176,0.30400782
46.184,0.30400782
46.192,0.30400782
46.2,0.30400782
46.208,0.30400782
46.216,0.304985337
46.224,0.306940371
46.232,0.31085044
46.24,0.318670577
46.248,0.332355816
46.256,0.353861193
46.264,0.383186706
46.272,0.419354839
46.28,0.463343109
46.288,0.512218964
46.296,0.563049853
46.304,0.613880743
46.312,0.661779081
46.32,0.697947214
46.328,0.72629521
46.336,0.750733138
46.344,0.768328446
46.352,0.778103617
46.36,0.781036168
46.368,0.778103617
46.376,0.77028348
46.384,0.759530792
46.392,0.746823069
46.4,0.735092864
46.408,0.725317693
46.416,0.716520039
46.424,0.710654936
46.432,0.707722385
46.44,0.707722385
46.448,0.710654936
46.456,0.715542522
46.464,0.721407625
46.472,0.727272727
46.48,0.732160313
46.488,0.734115347
46.496,0.734115347
46.504,0.730205279
46.512,0.722385142
46.52,0.712609971
46.528,0.701857283
46.536,0.688172043
46.544,0.673509286
46.552,0.65884653
46.56,0.64516129
46.568,0.632453568
46.576,0.622678397
46.584,0.613880743
46.592,0.60801564
46.6,0.603128055
46.608,0.601173021
46.616,0.598240469
46.624,0.596285435
46.632,0.594330401
46.64,0.591397849
46.648,0.588465298
46.656,0.583577713
46.664,0.578690127
46.672,0.573802542
46.68,0.566959922
46.688,0.559139785
46.696,0.550342131
46.704,0.541544477
46.712,0.532746823
46.72,0.523949169
46.728,0.516129032
46.736,0.508308895
46.744,0.498533724
46.752,0.48973607
46.76,0.480938416
46.768,0.472140762
46.776,0.463343109
46.784,0.455522972
46.792,0.447702835
46.8,0.441837732
46.808,0.43597263
46.816,0.432062561
46.824,0.428152493
46.832,0.424242424
46.84,0.420332356
46.848,0.416422287
46.856,0.413489736
46.864,0.409579668
46.872,0.406647116
46.88,0.402737048
46.888,0.399804497
46.896,0.396871945
46.904,0.393939394
46.912,0.391006843
46.92,0.389051808
46.928,0.387096774
46.936,0.38514174
46.944,0.383186706
46.952,0.380254154
46.96,0.377321603
46.968,0.375366569
46.976,0.372434018
46.984,0.370478983
46.992,0.368523949
47,0.365591398
47.008,0.362658847
47.016,0.360703812
47.024,0.358748778
47.032,0.355816227
47.04,0.352883675
47.048,0.350928641
47.056,0.34799609
47.064,0.346041056
47.072,0.344086022
47.08,0.34115347
47.088,0.338220919
47.096,0.335288368
47.104,0.333333333
47.112,0.331378299
47.12,0.330400782
47.128,0.330400782
47.136,0.330400782
47.144,0.330400782
47.152,0.329423265
47.16,0.328445748
47.168,0.328445748
47.176,0.327468231
47.184,0.326490714
47.192,0.326490714
47.2,0.325513196
47.208,0.324535679
47.216,0.324535679
47.224,0.323558162
47.232,0.322580645
47.24,0.321603128
47.248,0.318670577
47.256,0.316715543
47.264,0.313782991
47.272,0.311827957
47.28,0.311827957
47.288,0.315738025
47.296,0.323558162
47.304,0.338220919
47.312,0.359726295
47.32,0.384164223
47.328,0.412512219
47.336,0.451612903
47.344,0.497556207
47.352,0.54740958
47.36,0.597262952
47.368,0.64516129
47.376,0.688172043
47.384,0.723362659
47.392,0.749755621
47.4,0.766373412
47.408,0.776148583
47.416,0.7771261
47.424,0.774193548
47.432,0.766373412
47.44,0.757575758
47.448,0.747800587
47.456,0.738025415
47.464,0.730205279
47.472,0.725317693
47.48,0.723362659
47.488,0.723362659
47.496,0.727272727
47.504,0.732160313
47.512,0.739002933
47.52,0.744868035
47.528,0.748778104
47.536,0.754643206
47.544,0.759530792
47.552,0.761485826
47.56,0.760508309
47.568,0.755620723
47.576,0.746823069
47.584,0.734115347
47.592,0.717497556
47.6,0.699902248
47.608,0.681329423
47.616,0.663734115
47.624,0.648093842
47.632,0.633431085
47.64,0.619745846
47.648,0.60801564
47.656,0.599217986
47.664,0.592375367
47.672,0.588465298
47.68,0.58455523
47.688,0.582600196
47.696,0.580645161
47.704,0.57771261
47.712,0.575757576
47.72,0.571847507
47.728,0.567937439
47.736,0.562072336
47.744,0.555229717
47.752,0.548387097
47.76,0.539589443
47.768,0.530791789
47.776,0.521016618
47.784,0.511241447
47.792,0.501466276
47.8,0.491691105
47.808,0.470185728
47.816,0.444770283
47.824,0.428152493
47.832,0.416422287
47.84,0.406647116
47.848,0.398826979
47.856,0.391006843
47.864,0.384164223
47.872,0.377321603
47.88,0.3714565
47.888,0.365591398
47.896,0.360703812
47.904,0.355816227
47.912,0.351906158
47.92,0.34799609
47.928,0.345063539
47.936,0.34115347
47.944,0.337243402
47.952,0.333333333
47.96,0.330400782
47.968,0.327468231
47.976,0.324535679
47.984,0.321603128
47.992,0.318670577
48,0.315738025
48.008,0.312805474
48.016,0.31085044
48.024,0.308895406
48.032,0.305962854
48.04,0.30400782
48.048,0.301075269
48.056,0.298142717
48.064,0.295210166
48.072,0.293255132
48.08,0.290322581
48.088,0.287390029
48.096,0.285434995
48.104,0.283479961
48.112,0.282502444
48.12,0.281524927
48.128,0.279569892
48.136,0.277614858
48.144,0.275659824
48.152,0.272727273
48.16,0.270772239
48.168,0.267839687
48.176,0.265884653
48.184,0.263929619
48.192,0.262952102
48.2,0.260997067
48.208,0.26001955
48.216,0.259042033
48.224,0.259042033
48.232,0.259042033
48.24,0.258064516
48.248,0.257086999
48.256,0.257086999
48.264,0.256109482
48.272,0.255131965
48.28,0.254154448
48.288,0.253176931
48.296,0.252199413
48.304,0.250244379
48.312,0.249266862
48.32,0.247311828
48.328,0.245356794
48.336,0.24340176
48.344,0.244379277
48.352,0.247311828
48.36,0.256109482
48.368,0.270772239
48.376,0.293255132
48.384,0.323558162
48.392,0.362658847
48.4,0.408602151
48.408,0.45943304
48.416,0.504398827
48.424,0.546432063
48.432,0.590420332
48.44,0.631476051
48.448,0.66568915
48.456,0.692082111
48.464,0.709677419
48.472,0.718475073
48.48,0.71945259
48.488,0.715542522
48.496,0.707722385
48.504,0.696969697
48.512,0.686217009
48.52,0.676441838
48.528,0.668621701
48.536,0.662756598
48.544,0.660801564
48.552,0.661779081
48.56,0.664711632
48.568,0.670576735
48.576,0.678396872
48.584,0.685239492
48.592,0.693059629
48.6,0.698924731
48.608,0.7028348
48.616,0.7028348
48.624,0.698924731
48.632,0.693059629
48.64,0.683284457
48.648,0.669599218
48.656,0.652981427
48.664,0.633431085
48.672,0.613880743
48.68,0.595307918
48.688,0.57771261
48.696,0.562072336
48.704,0.550342131
48.712,0.541544477
48.72,0.534701857
48.728,0.529814272
48.736,0.52688172
48.744,0.524926686
48.752,0.522971652
48.76,0.521016618
48.768,0.518084066
48.776,0.515151515
48.784,0.511241447
48.792,0.506353861
48.8,0.499511241
48.808,0.492668622
48.816,0.485826002
48.824,0.478005865
48.832,0.470185728
48.84,0.460410557
48.848,0.450635386
48.856,0.440860215
48.864,0.431085044
48.872,0.42228739
48.88,0.412512219
48.888,0.403714565
48.896,0.394916911
48.904,0.387096774
48.912,0.380254154
48.92,0.374389052
48.928,0.367546432
48.936,0.361681329
48.944,0.355816227
48.952,0.350928641
48.96,0.346041056
48.968,0.342130987
48.976,0.338220919
48.984,0.33431085
48.992,0.330400782
49,0.326490714
49.008,0.323558162
49.016,0.320625611
49.024,0.318670577
49.032,0.316715543
49.04,0.314760508
49.048,0.311827957
49.056,0.309872923
49.064,0.306940371
49.072,0.30400782
49.08,0.302052786
49.088,0.299120235
49.096,0.296187683
49.104,0.293255132
49.112,0.292277615
49.12,0.290322581
49.128,0.288367546
49.136,0.286412512
49.144,0.283479961
49.152,0.281524927
49.16,0.279569892
49.168,0.277614858
49.176,0.275659824
49.184,0.272727273
49.192,0.270772239
49.2,0.267839687
49.208,0.264907136
49.216,0.263929619
49.224,0.262952102
49.232,0.261974585
49.24,0.26001955
49.248,0.259042033
49.256,0.258064516
49.264,0.256109482
49.272,0.255131965
49.28,0.254154448
49.288,0.253176931
49.296,0.253176931
49.304,0.253176931
49.312,0.253176931
49.32,0.253176931
49.328,0.253176931
49.336,0.252199413
49.344,0.251221896
49.352,0.249266862
49.36,0.247311828
49.368,0.245356794
49.376,0.24340176
49.384,0.241446725
49.392,0.239491691
49.4,0.239491691
49.408,0.242424242
49.416,0.248289345
49.424,0.257086999
49.432,0.27370479
49.44,0.2971652
49.448,0.329423265
49.456,0.369501466
49.464,0.41544477
49.472,0.46627566
49.48,0.519061584
49.488,0.569892473
49.496,0.615835777
49.504,0.654936461
49.512,0.68230694
49.52,0.699902248
49.528,0.712609971
49.536,0.717497556
49.544,0.717497556
49.552,0.711632454
49.56,0.7028348
49.568,0.692082111
49.576,0.681329423
49.584,0.671554252
49.592,0.664711632
49.6,0.659824047
49.608,0.656891496
49.616,0.655913978
49.624,0.65884653
49.632,0.662756598
49.64,0.669599218
49.648,0.676441838
49.656,0.683284457
49.664,0.688172043
49.672,0.690127077
49.68,0.68914956
49.688,0.684261975
49.696,0.675464321
49.704,0.663734115
49.712,0.649071359
49.72,0.634408602
49.728,0.617790811
49.736,0.600195503
49.744,0.582600196
49.752,0.566959922
49.76,0.553274682
49.768,0.541544477
49.776,0.532746823
49.784,0.525904203
49.792,0.521016618
49.8,0.517106549
49.808,0.514173998
49.816,0.51026393
49.824,0.507331378
49.832,0.50342131
49.84,0.498533724
49.848,0.492668622
49.856,0.48973607
49.864,0.487781036
49.872,0.481915934
49.88,0.474095797
49.888,0.465298143
49.896,0.455522972
49.904,0.444770283
49.912,0.434995112
49.92,0.427174976
49.928,0.417399804
49.936,0.407624633
49.944,0.397849462
49.952,0.389051808
49.96,0.379276637
49.968,0.370478983
49.976,0.362658847
49.984,0.355816227
49.992,0.348973607
50,0.343108504
50.008,0.338220919
50.016,0.335288368
50.024,0.331378299
50.032,0.326490714
50.04,0.321603128
50.048,0.31769306
50.056,0.313782991
50.064,0.308895406
50.072,0.304985337
50.08,0.301075269
50.088,0.2971652
50.096,0.294232649
50.104,0.291300098
50.112,0.289345064
50.12,0.287390029
50.128,0.285434995
50.136,0.282502444
50.144,0.279569892
50.152,0.276637341
50.16,0.27370479
50.168,0.270772239
50.176,0.268817204
50.184,0.265884653
50.192,0.261974585
50.2,0.259042033
50.208,0.257086999
50.216,0.255131965
50.224,0.253176931
50.232,0.250244379
50.24,0.247311828
50.248,0.245356794
50.256,0.242424242
50.264,0.239491691
50.272,0.23655914
50.28,0.233626588
50.288,0.231671554
50.296,0.228739003
50.304,0.226783969
50.312,0.225806452
50.32,0.225806452
50.328,0.224828935
50.336,0.223851417
50.344,0.2228739
50.352,0.220918866
50.36,0.219941349
50.368,0.218963832
50.376,0.217008798
50.384,0.216031281
50.392,0.214076246
50.4,0.213098729
50.408,0.213098729
50.416,0.213098729
50.424,0.212121212
50.432,0.211143695
50.44,0.209188661
50.448,0.207233627
50.456,0.206256109
50.464,0.204301075
50.472,0.204301075
50.48,0.206256109
50.488,0.212121212
50.496,0.2228739
50.504,0.242424242
50.512,0.263929619
50.52,0.291300098
50.528,0.329423265
50.536,0.375366569
50.544,0.426197458
50.552,0.479960899
50.56,0.531769306
50.568,0.580645161
50.576,0.622678397
50.584,0.655913978
50.592,0.679374389
50.6,0.693059629
50.608,0.697947214
50.616,0.69599218
50.624,0.68914956
50.632,0.677419355
50.64,0.663734115
50.648,0.649071359
50.656,0.635386119
50.664,0.623655914
50.672,0.61485826
50.68,0.608993157
50.688,0.607038123
50.696,0.60801564
50.704,0.612903226
50.712,0.617790811
50.72,0.622678397
50.728,0.6285435
50.736,0.634408602
50.744,0.637341153
50.752,0.637341153
50.76,0.633431085
50.768,0.625610948
50.776,0.613880743
50.784,0.600195503
50.792,0.58455523
50.8,0.567937439
50.808,0.552297165
50.816,0.539589443
50.824,0.52688172
50.832,0.517106549
50.84,0.509286413
50.848,0.50342131
50.856,0.500488759
50.864,0.498533724
50.872,0.497556207
50.88,0.49657869
50.888,0.495601173
50.896,0.493646139
50.904,0.491691105
50.912,0.488758553
50.92,0.484848485
50.928,0.478983382
50.936,0.47311828
50.944,0.465298143
50.952,0.457478006
50.96,0.449657869
50.968,0.440860215
50.976,0.432062561
50.984,0.42228739
50.992,0.413489736
51,0.405669599
51.008,0.398826979
51.016,0.392961877
51.024,0.387096774
51.032,0.381231672
51.04,0.375366569
51.048,0.370478983
51.056,0.366568915
51.064,0.362658847
51.072,0.359726295
51.08,0.356793744
51.088,0.353861193
51.096,0.350928641
51.104,0.348973607
51.112,0.347018573
51.12,0.345063539
51.128,0.344086022
51.136,0.342130987
51.144,0.34115347
51.152,0.340175953
51.16,0.339198436
51.168,0.338220919
51.176,0.337243402
51.184,0.335288368
51.192,0.333333333
51.2,0.332355816
51.208,0.332355816
51.216,0.331378299
51.224,0.330400782
51.232,0.329423265
51.24,0.328445748
51.248,0.327468231
51.256,0.325513196
51.264,0.323558162
51.272,0.321603128
51.28,0.320625611
51.288,0.318670577
51.296,0.318670577
51.304,0.31769306
51.312,0.31769306
51.32,0.31769306
51.328,0.316715543
51.336,0.315738025
51.344,0.315738025
51.352,0.314760508
51.36,0.313782991
51.368,0.312805474
51.376,0.311827957
51.384,0.31085044
51.392,0.309872923
51.4,0.309872923
51.408,0.309872923
51.416,0.309872923
51.424,0.309872923
51.432,0.309872923
51.44,0.309872923
51.448,0.308895406
51.456,0.306940371
51.464,0.304985337
51.472,0.303030303
51.48,0.302052786
51.488,0.304985337
51.496,0.311827957
51.504,0.322580645
51.512,0.337243402
51.52,0.361681329
51.528,0.393939394
51.536,0.434995112
51.544,0.481915934
51.552,0.532746823
51.56,0.58455523
51.568,0.634408602
51.576,0.679374389
51.584,0.717497556
51.592,0.746823069
51.6,0.766373412
51.608,0.776148583
51.616,0.779081134
51.624,0.7771261
51.632,0.769305963
51.64,0.759530792
51.648,0.746823069
51.656,0.734115347
51.664,0.721407625
51.672,0.711632454
51.68,0.705767351
51.688,0.701857283
51.696,0.701857283
51.704,0.7028348
51.712,0.704789834
51.72,0.708699902
51.728,0.714565005
51.736,0.718475073
51.744,0.721407625
51.752,0.721407625
51.76,0.718475073
51.768,0.711632454
51.776,0.700879765
51.784,0.688172043
51.792,0.672531769
51.8,0.654936461
51.808,0.639296188
51.816,0.624633431
51.824,0.609970674
51.832,0.597262952
51.84,0.586510264
51.848,0.578690127
51.856,0.571847507
51.864,0.566959922
51.872,0.56402737
51.88,0.561094819
51.888,0.558162268
51.896,0.555229717
51.904,0.550342131
51.912,0.545454545
51.92,0.54056696
51.928,0.535679374
51.936,0.529814272
51.944,0.522971652
51.952,0.516129032
51.96,0.508308895
51.968,0.499511241
51.976,0.491691105
51.984,0.483870968
51.992,0.475073314
52,0.46627566
52.008,0.45943304
52.016,0.45259042
52.024,0.444770283
52.032,0.437927664
52.04,0.431085044
