Sampling Rate : 100Hz,Duration : 210 seconds
Time,PPG
0,-233126
0.01,-233193
0.02,-233238
0.03,-233287
0.04,-233322
0.05,-233354
0.06,-233372
0.07,-233372
0.08,-233372
0.09,-233372
0.1,-233373
0.11,-233384
0.12,-233373
0.13,-233361
0.14,-233339
0.15,-233317
0.16,-233289
0.17,-233279
0.18,-233260
0.19,-233253
0.2,-233217
0.21,-233209
0.22,-233205
0.23,-233194
0.24,-233186
0.25,-233170
0.26,-233191
0.27,-233190
0.28,-233201
0.29,-233215
0.3,-233241
0.31,-233280
0.32,-233277
0.33,-233325
0.34,-233361
0.35,-233393
0.36,-233431
0.37,-233457
0.38,-233513
0.39,-233549
0.4,-233590
0.41,-233632
0.42,-233666
0.43,-233709
0.44,-233754
0.45,-233808
0.46,-233843
0.47,-233888
0.48,-233925
0.49,-233973
0.5,-234008
0.51,-234055
0.52,-234098
0.53,-234130
0.54,-234172
0.55,-234219
0.56,-234255
0.57,-234302
0.58,-234336
0.59,-234378
0.6,-234416
0.61,-234459
0.62,-234499
0.63,-234536
0.64,-234580
0.65,-234612
0.66,-234641
0.67,-234679
0.68,-234714
0.69,-234749
0.7,-234786
0.71,-234804
0.72,-234844
0.73,-234862
0.74,-234893
0.75,-234905
0.76,-234914
0.77,-234911
0.78,-234861
0.79,-234793
0.8,-234699
0.81,-234576
0.82,-234425
0.83,-234246
0.84,-234052
0.85,-233806
0.86,-233590
0.87,-233321
0.88,-233070
0.89,-232806
0.9,-232552
0.91,-232314
0.92,-232084
0.93,-231880
0.94,-231692
0.95,-231526
0.96,-231402
0.97,-231290
0.98,-231210
0.99,-231145
1,-231102
1.01,-231078
1.02,-231064
1.03,-231076
1.04,-231081
1.05,-231114
1.06,-231149
1.07,-231197
1.08,-231252
1.09,-231292
1.1,-231354
1.11,-231400
1.12,-231453
1.13,-231504
1.14,-231583
1.15,-231640
1.16,-231726
1.17,-231801
1.18,-231888
1.19,-231965
1.2,-232046
1.21,-232129
1.22,-232213
1.23,-232277
1.24,-232382
1.25,-232454
1.26,-232532
1.27,-232601
1.28,-232663
1.29,-232726
1.3,-232780
1.31,-232821
1.32,-232861
1.33,-232886
1.34,-232898
1.35,-232901
1.36,-232925
1.37,-232922
1.38,-232914
1.39,-232893
1.4,-232867
1.41,-232851
1.42,-232826
1.43,-232783
1.44,-232768
1.45,-232741
1.46,-232733
1.47,-232718
1.48,-232694
1.49,-232673
1.5,-232648
1.51,-232642
1.52,-232649
1.53,-232629
1.54,-232631
1.55,-232636
1.56,-232645
1.57,-232650
1.58,-232658
1.59,-232674
1.6,-232687
1.61,-232708
1.62,-232709
1.63,-232744
1.64,-232756
1.65,-232769
1.66,-232806
1.67,-232836
1.68,-232878
1.69,-232906
1.7,-232945
1.71,-232989
1.72,-233023
1.73,-233080
1.74,-233128
1.75,-233172
1.76,-233227
1.77,-233271
1.78,-233317
1.79,-233368
1.8,-233410
1.81,-233454
1.82,-233496
1.83,-233541
1.84,-233574
1.85,-233618
1.86,-233668
1.87,-233701
1.88,-233747
1.89,-233793
1.9,-233819
1.91,-233860
1.92,-233892
1.93,-233925
1.94,-233955
1.95,-234010
1.96,-234043
1.97,-234089
1.98,-234112
1.99,-234150
2,-234184
2.01,-234222
2.02,-234255
2.03,-234282
2.04,-234294
2.05,-234299
2.06,-234282
2.07,-234229
2.08,-234143
2.09,-234029
2.1,-233887
2.11,-233720
2.12,-233506
2.13,-233274
2.14,-233040
2.15,-232765
2.16,-232511
2.17,-232228
2.18,-231953
2.19,-231684
2.2,-231454
2.21,-231232
2.22,-231028
2.23,-230865
2.24,-230721
2.25,-230591
2.26,-230502
2.27,-230427
2.28,-230400
2.29,-230363
2.3,-230358
2.31,-230360
2.32,-230382
2.33,-230418
2.34,-230459
2.35,-230493
2.36,-230553
2.37,-230604
2.38,-230673
2.39,-230740
2.4,-230809
2.41,-230895
2.42,-230974
2.43,-231038
2.44,-231038
2.45,-231127
2.46,-231212
2.47,-231297
2.48,-231389
2.49,-231477
2.5,-231565
2.51,-231663
2.52,-231663
2.53,-231739
2.54,-231820
2.55,-231900
2.56,-231973
2.57,-232047
2.58,-232117
2.59,-232167
2.6,-232220
2.61,-232259
2.62,-232298
2.63,-232332
2.64,-232348
2.65,-232362
2.66,-232385
2.67,-232385
2.68,-232386
2.69,-232378
2.7,-232362
2.71,-232354
2.72,-232331
2.73,-232314
2.74,-232285
2.75,-232262
2.76,-232234
2.77,-232202
2.78,-232170
2.79,-232137
2.8,-232123
2.81,-232107
2.82,-232075
2.83,-232059
2.84,-232040
2.85,-232041
2.86,-232045
2.87,-232042
2.88,-232053
2.89,-232076
2.9,-232089
2.91,-232089
2.92,-232082
2.93,-232118
2.94,-232144
2.95,-232174
2.96,-232194
2.97,-232252
2.98,-232288
2.99,-232323
3,-232361
3.01,-232394
3.02,-232429
3.03,-232453
3.04,-232491
3.05,-232539
3.06,-232568
3.07,-232615
3.08,-232646
3.09,-232689
3.1,-232740
3.11,-232790
3.12,-232835
3.13,-232883
3.14,-232926
3.15,-232965
3.16,-233013
3.17,-233044
3.18,-233098
3.19,-233118
3.2,-233164
3.21,-233210
3.22,-233254
3.23,-233293
3.24,-233330
3.25,-233370
3.26,-233403
3.27,-233449
3.28,-233487
3.29,-233540
3.3,-233578
3.31,-233618
3.32,-233655
3.33,-233686
3.34,-233729
3.35,-233756
3.36,-233788
3.37,-233807
3.38,-233810
3.39,-233784
3.4,-233734
3.41,-233734
3.42,-233647
3.43,-233528
3.44,-233378
3.45,-233220
3.46,-233007
3.47,-232777
3.48,-232529
3.49,-232255
3.5,-231967
3.51,-231690
3.52,-231402
3.53,-231124
3.54,-230878
3.55,-230633
3.56,-230633
3.57,-230633
3.58,-230418
3.59,-230239
3.6,-230077
3.61,-229951
3.62,-229848
3.63,-229786
3.64,-229732
3.65,-229717
3.66,-229698
3.67,-229698
3.68,-229709
3.69,-229727
3.7,-229773
3.71,-229828
3.72,-229874
3.73,-229925
3.74,-229991
3.75,-230059
3.76,-230143
3.77,-230214
3.78,-230299
3.79,-230375
3.8,-230468
3.81,-230549
3.82,-230645
3.83,-230734
3.84,-230826
3.85,-230936
3.86,-231041
3.87,-231114
3.88,-231194
3.89,-231281
3.9,-231355
3.91,-231428
3.92,-231494
3.93,-231563
3.94,-231626
3.95,-231673
3.96,-231719
3.97,-231761
3.98,-231788
3.99,-231809
4,-231818
4.01,-231839
4.02,-231817
4.03,-231812
4.04,-231784
4.05,-231763
4.06,-231722
4.07,-231696
4.08,-231660
4.09,-231621
4.1,-231589
4.11,-231534
4.12,-231495
4.13,-231467
4.14,-231467
4.15,-231431
4.16,-231396
4.17,-231362
4.18,-231341
4.19,-231301
4.2,-231295
4.21,-231272
4.22,-231275
4.23,-231262
4.24,-231269
4.25,-231273
4.26,-231298
4.27,-231323
4.28,-231327
4.29,-231360
4.3,-231384
4.31,-231404
4.32,-231433
4.33,-231456
4.34,-231485
4.35,-231527
4.36,-231560
4.37,-231606
4.38,-231635
4.39,-231689
4.4,-231707
4.41,-231756
4.42,-231789
4.43,-231841
4.44,-231897
4.45,-231945
4.46,-231987
4.47,-232049
4.48,-232087
4.49,-232147
4.5,-232196
4.51,-232225
4.52,-232280
4.53,-232330
4.54,-232369
4.55,-232426
4.56,-232471
4.57,-232512
4.58,-232558
4.59,-232595
4.6,-232595
4.61,-232595
4.62,-232631
4.63,-232631
4.64,-232684
4.65,-232713
4.66,-232758
4.67,-232806
4.68,-232822
4.69,-232852
4.7,-232859
4.71,-232848
4.72,-232804
4.73,-232730
4.74,-232640
4.75,-232483
4.76,-232330
4.77,-232117
4.78,-231892
4.79,-231645
4.8,-231374
4.81,-231088
4.82,-230810
4.83,-230520
4.84,-230242
4.85,-229974
4.86,-229728
4.87,-229728
4.88,-229502
4.89,-229295
4.9,-229128
4.91,-228979
4.92,-228868
4.93,-228796
4.94,-228738
4.95,-228696
4.96,-228675
4.97,-228676
4.98,-228696
4.99,-228719
5,-228762
5.01,-228813
5.02,-228877
5.03,-228950
5.04,-229040
5.05,-229122
5.06,-229204
5.07,-229298
5.08,-229387
5.09,-229482
5.1,-229581
5.11,-229669
5.12,-229762
5.13,-229854
5.14,-229948
5.15,-230052
5.16,-230140
5.17,-230232
5.18,-230313
5.19,-230411
5.2,-230477
5.21,-230559
5.22,-230605
5.23,-230685
5.24,-230747
5.25,-230812
5.26,-230834
5.27,-230873
5.28,-230900
5.29,-230917
5.3,-230926
5.31,-230908
5.32,-230911
5.33,-230913
5.34,-230910
5.35,-230910
5.36,-230887
5.37,-230869
5.38,-230849
5.39,-230843
5.4,-230823
5.41,-230803
5.42,-230774
5.43,-230755
5.44,-230741
5.45,-230737
5.46,-230725
5.47,-230732
5.48,-230738
5.49,-230736
5.5,-230746
5.51,-230783
5.52,-230795
5.53,-230804
5.54,-230850
5.55,-230870
5.56,-230903
5.57,-230950
5.58,-230994
5.59,-231035
5.6,-231078
5.61,-231120
5.62,-231162
5.63,-231203
5.64,-231243
5.65,-231243
5.66,-231243
5.67,-231303
5.68,-231333
5.69,-231394
5.7,-231434
5.71,-231496
5.72,-231524
5.73,-231573
5.74,-231635
5.75,-231679
5.76,-231756
5.77,-231805
5.78,-231845
5.79,-231901
5.8,-231955
5.81,-231993
5.82,-232052
5.83,-232101
5.84,-232131
5.85,-232131
5.86,-232187
5.87,-232217
5.88,-232261
5.89,-232298
5.9,-232349
5.91,-232381
5.92,-232428
5.93,-232467
5.94,-232511
5.95,-232546
5.96,-232582
5.97,-232602
5.98,-232615
5.99,-232613
6,-232568
6.01,-232490
6.02,-232384
6.03,-232247
6.04,-232072
6.05,-231848
6.06,-231599
6.07,-231346
6.08,-231067
6.09,-230772
6.1,-230489
6.11,-230185
6.12,-229912
6.13,-229656
6.14,-229656
6.15,-229400
6.16,-229180
6.17,-228986
6.18,-228820
6.19,-228699
6.2,-228588
6.21,-228492
6.22,-228436
6.23,-228410
6.24,-228387
6.25,-228388
6.26,-228389
6.27,-228427
6.28,-228456
6.29,-228485
6.3,-228538
6.31,-228584
6.32,-228658
6.33,-228721
6.34,-228795
6.35,-228855
6.36,-228934
6.37,-229027
6.38,-229114
6.39,-229185
6.4,-229280
6.41,-229373
6.42,-229462
6.43,-229551
6.44,-229645
6.45,-229727
6.46,-229835
6.47,-229898
6.48,-229954
6.49,-230037
6.5,-230089
6.51,-230159
6.52,-230202
6.53,-230251
6.54,-230283
6.55,-230308
6.56,-230331
6.57,-230331
6.58,-230355
6.59,-230365
6.6,-230372
6.61,-230355
6.62,-230357
6.63,-230331
6.64,-230320
6.65,-230300
6.66,-230259
6.67,-230244
6.68,-230219
6.69,-230200
6.7,-230200
6.71,-230165
6.72,-230129
6.73,-230115
6.74,-230091
6.75,-230081
6.76,-230059
6.77,-230068
6.78,-230076
6.79,-230071
6.8,-230094
6.81,-230113
6.82,-230119
6.83,-230119
6.84,-230161
6.85,-230178
6.86,-230203
6.87,-230257
6.88,-230285
6.89,-230335
6.9,-230364
6.91,-230414
6.92,-230448
6.93,-230490
6.94,-230544
6.95,-230591
6.96,-230645
6.97,-230688
6.98,-230740
6.99,-230792
7,-230848
7.01,-230899
7.02,-230956
7.03,-231013
7.04,-231063
7.05,-231118
7.06,-231175
7.07,-231239
7.08,-231270
7.09,-231270
7.1,-231331
7.11,-231378
7.12,-231434
7.13,-231474
7.14,-231531
7.15,-231569
7.16,-231620
7.17,-231669
7.18,-231708
7.19,-231759
7.2,-231804
7.21,-231859
7.22,-231897
7.23,-231942
7.24,-231978
7.25,-232009
7.26,-232059
7.27,-232099
7.28,-232131
7.29,-232152
7.3,-232178
7.31,-232184
7.32,-232191
7.33,-232169
7.34,-232090
7.35,-232016
7.36,-231862
7.37,-231692
7.38,-231485
7.39,-231238
7.4,-230962
7.41,-230671
7.42,-230361
7.43,-230034
7.44,-229722
7.45,-229420
7.46,-229120
7.47,-229120
7.48,-228858
7.49,-228590
7.5,-228391
7.51,-228181
7.52,-228032
7.53,-227919
7.54,-227834
7.55,-227775
7.56,-227738
7.57,-227730
7.58,-227725
7.59,-227756
7.6,-227793
7.61,-227845
7.62,-227906
7.63,-227969
7.64,-228039
7.65,-228119
7.66,-228203
7.67,-228274
7.68,-228366
7.69,-228463
7.7,-228574
7.71,-228649
7.72,-228753
7.73,-228864
7.74,-228864
7.75,-228864
7.76,-228975
7.77,-229088
7.78,-229206
7.79,-229304
7.8,-229426
7.81,-229519
7.82,-229519
7.83,-229624
7.84,-229714
7.85,-229796
7.86,-229874
7.87,-229946
7.88,-230015
7.89,-230046
7.9,-230100
7.91,-230125
7.92,-230160
7.93,-230170
7.94,-230169
7.95,-230166
7.96,-230147
7.97,-230133
7.98,-230094
7.99,-230069
8,-230035
8.01,-229991
8.02,-229963
8.03,-229919
8.04,-229881
8.05,-229843
8.06,-229814
8.07,-229769
8.08,-229755
8.09,-229721
8.1,-229701
8.11,-229689
8.12,-229691
8.13,-229698
8.14,-229698
8.15,-229720
8.16,-229711
8.17,-229737
8.18,-229762
8.19,-229792
8.2,-229826
8.21,-229848
8.22,-229886
8.23,-229914
8.24,-229966
8.25,-229990
8.26,-230039
8.27,-230068
8.28,-230104
8.29,-230154
8.3,-230183
8.31,-230245
8.32,-230284
8.33,-230333
8.34,-230391
8.35,-230419
8.36,-230475
8.37,-230543
8.38,-230571
8.39,-230637
8.4,-230681
8.41,-230743
8.42,-230780
8.43,-230829
8.44,-230875
8.45,-230945
8.46,-230997
8.47,-231044
8.48,-231096
8.49,-231129
8.5,-231185
8.51,-231231
8.52,-231281
8.53,-231346
8.54,-231369
8.55,-231369
8.56,-231369
8.57,-231445
8.58,-231463
8.59,-231519
8.6,-231553
8.61,-231608
8.62,-231646
8.63,-231687
8.64,-231719
8.65,-231764
8.66,-231794
8.67,-231804
8.68,-231794
8.69,-231756
8.7,-231675
8.71,-231545
8.72,-231399
8.73,-230959
8.74,-230703
8.75,-230421
8.76,-230123
8.77,-229807
8.78,-229470
8.79,-229470
8.8,-229470
8.81,-229470
8.82,-229179
8.83,-228884
8.84,-228597
8.85,-228348
8.86,-228107
8.87,-227925
8.88,-227757
8.89,-227640
8.9,-227549
8.91,-227488
8.92,-227443
8.93,-227426
8.94,-227434
8.95,-227462
8.96,-227505
8.97,-227551
8.98,-227675
8.99,-227740
9,-227838
9.01,-227922
9.02,-227922
9.03,-227922
9.04,-228005
9.05,-228105
9.06,-228197
9.07,-228298
9.08,-228404
9.09,-228512
9.1,-228616
9.11,-228731
9.12,-228836
9.13,-228953
9.14,-229057
9.15,-229174
9.16,-229274
9.17,-229361
9.18,-229442
9.19,-229523
9.2,-229664
9.21,-229724
9.22,-229772
9.23,-229824
9.24,-229854
9.25,-229866
9.26,-229866
9.27,-229866
9.28,-229897
9.29,-229907
9.3,-229902
9.31,-229889
9.32,-229868
9.33,-229841
9.34,-229808
9.35,-229767
9.36,-229727
9.37,-229686
9.38,-229648
9.39,-229608
9.4,-229560
9.41,-229525
9.42,-229497
9.43,-229468
9.44,-229436
9.45,-229429
9.46,-229428
9.47,-229415
9.48,-229419
9.49,-229427
9.5,-229427
9.51,-229434
9.52,-229441
9.53,-229468
9.54,-229488
9.55,-229517
9.56,-229544
9.57,-229568
9.58,-229603
9.59,-229644
9.6,-229672
9.61,-229718
9.62,-229753
9.63,-229817
9.64,-229868
9.65,-229917
9.66,-229976
9.67,-230078
9.68,-230133
9.69,-230178
9.7,-230222
9.71,-230285
9.72,-230350
9.73,-230350
9.74,-230397
9.75,-230457
9.76,-230503
9.77,-230561
9.78,-230615
9.79,-230672
9.8,-230720
9.81,-230774
9.82,-230824
9.83,-230863
9.84,-230927
9.85,-230981
9.86,-231035
9.87,-231085
9.88,-231085
9.89,-231085
9.9,-231135
9.91,-231176
9.92,-231246
9.93,-231290
9.94,-231309
9.95,-231301
9.96,-231291
9.97,-231291
9.98,-231291
9.99,-231247
10,-231247
10.01,-231178
10.02,-231056
10.03,-230912
10.04,-230720
10.05,-229987
10.06,-229722
10.07,-229425
10.08,-229135
10.09,-228865
10.1,-228590
10.11,-228335
10.12,-228110
10.13,-227914
10.14,-227739
10.15,-227593
10.16,-227406
10.17,-227310
10.18,-227308
10.19,-227333
10.2,-227367
10.21,-227417
10.22,-227473
10.23,-227537
10.24,-227537
10.25,-227537
10.26,-228007
10.27,-228007
10.28,-228094
10.29,-228204
10.3,-228309
10.31,-228421
10.32,-228533
10.33,-228640
10.34,-228754
10.35,-228867
10.36,-228989
10.37,-229108
10.38,-229202
10.39,-229311
10.4,-229416
10.41,-229504
10.42,-229584
10.43,-229737
10.44,-229852
10.45,-229926
10.46,-229957
10.47,-229997
10.48,-230038
10.49,-230021
10.5,-230005
10.51,-230005
10.52,-230005
10.53,-229987
10.54,-229957
10.55,-229917
10.56,-229895
10.57,-229858
10.58,-229793
10.59,-229765
10.6,-229740
10.61,-229713
10.62,-229700
10.63,-229679
10.64,-229668
10.65,-229648
10.66,-229638
10.67,-229645
10.68,-229654
10.69,-229676
10.7,-229685
10.71,-229714
10.72,-229786
10.73,-229812
10.74,-229863
10.75,-229863
10.76,-229915
10.77,-229952
10.78,-229995
10.79,-230048
10.8,-230077
10.81,-230123
10.82,-230187
10.83,-230234
10.84,-230288
10.85,-230346
10.86,-230390
10.87,-230430
10.88,-230478
10.89,-230541
10.9,-230596
10.91,-230637
10.92,-230737
10.93,-230799
10.94,-230855
10.95,-230989
10.96,-231035
10.97,-231089
10.98,-231089
10.99,-231089
11,-231139
11.01,-231139
11.02,-231205
11.03,-231241
11.04,-231269
11.05,-231323
11.06,-231363
11.07,-231407
11.08,-231447
11.09,-231484
11.1,-231502
11.11,-231483
11.12,-231453
11.13,-231377
11.14,-231277
11.15,-231138
11.16,-230957
11.17,-230517
11.18,-230252
11.19,-229091
11.2,-228831
11.21,-228831
11.22,-228831
11.23,-228129
11.24,-227957
11.25,-227957
11.26,-227805
11.27,-227685
11.28,-227611
11.29,-227554
11.3,-227526
11.31,-227513
11.32,-227524
11.33,-227564
11.34,-227576
11.35,-227628
11.36,-227688
11.37,-227772
11.38,-227849
11.39,-227940
11.4,-228121
11.41,-228224
11.42,-228330
11.43,-228435
11.44,-228534
11.45,-228658
11.46,-228658
11.47,-228782
11.48,-229155
11.49,-229260
11.5,-229482
11.51,-229585
11.52,-229670
11.53,-229761
11.54,-229855
11.55,-229930
11.56,-229987
11.57,-230019
11.58,-230075
11.59,-230099
11.6,-230129
11.61,-230150
11.62,-230146
11.63,-230129
11.64,-230104
11.65,-230084
11.66,-230053
11.67,-230023
11.68,-229982
11.69,-229982
11.7,-229982
11.71,-229933
11.72,-229907
11.73,-229852
11.74,-229827
11.75,-229741
11.76,-229706
11.77,-229682
11.78,-229650
11.79,-229637
11.8,-229634
11.81,-229613
11.82,-229590
11.83,-229593
11.84,-229596
11.85,-229607
11.86,-229611
11.87,-229646
11.88,-229670
11.89,-229697
11.9,-229710
11.91,-229736
11.92,-229767
11.93,-229767
11.94,-229817
11.95,-229853
11.96,-229888
11.97,-229940
11.98,-230084
11.99,-230142
12,-230194
12.01,-230257
12.02,-230304
12.03,-230348
12.04,-230405
12.05,-230456
12.06,-230499
12.07,-230544
12.08,-230604
12.09,-230604
12.1,-230648
12.11,-230648
12.12,-230731
12.13,-230776
12.14,-230820
12.15,-230856
12.16,-230856
12.17,-230902
12.18,-230931
12.19,-230968
12.2,-230986
12.21,-230986
12.22,-230965
12.23,-230725
12.24,-230585
12.25,-230397
12.26,-230161
12.27,-229913
12.28,-229647
12.29,-229361
12.3,-229059
12.31,-228764
12.32,-228478
12.33,-227957
12.34,-227697
12.35,-227697
12.36,-227498
12.37,-227314
12.38,-227180
12.39,-227060
12.4,-227060
12.41,-226966
12.42,-226966
12.43,-226966
12.44,-226918
12.45,-226891
12.46,-226868
12.47,-227072
12.48,-227126
12.49,-227221
12.5,-227312
12.51,-227398
12.52,-227499
12.53,-227599
12.54,-227693
12.55,-227806
12.56,-227918
12.57,-228023
12.58,-228143
12.59,-228367
12.6,-228587
12.61,-228680
12.62,-228786
12.63,-228867
12.64,-228951
12.65,-229021
12.66,-229091
12.67,-229091
12.68,-229151
12.69,-229273
12.7,-229313
12.71,-229314
12.72,-229320
12.73,-229319
12.74,-229313
12.75,-229294
12.76,-229261
12.77,-229225
12.78,-229191
12.79,-229149
12.8,-229087
12.81,-229073
12.82,-229020
12.83,-228971
12.84,-228899
12.85,-228875
12.86,-228849
12.87,-228830
12.88,-228835
12.89,-228810
12.9,-228810
12.91,-228810
12.92,-228808
12.93,-228828
12.94,-228854
12.95,-228867
12.96,-228889
12.97,-228927
12.98,-228965
12.99,-228992
13,-229031
13.01,-229068
13.02,-229106
13.03,-229140
13.04,-229175
13.05,-229218
13.06,-229284
13.07,-229324
13.08,-229403
13.09,-229466
13.1,-229510
13.11,-229577
13.12,-229617
13.13,-229658
13.14,-229658
13.15,-229699
13.16,-229853
13.17,-229899
13.18,-229955
13.19,-229977
13.2,-229977
13.21,-229977
13.22,-230011
13.23,-230046
13.24,-230091
13.25,-230125
13.26,-230161
13.27,-230185
13.28,-230206
13.29,-230225
13.3,-230225
13.31,-230187
13.32,-230121
13.33,-229886
13.34,-229712
13.35,-229505
13.36,-229277
13.37,-229277
13.38,-229010
13.39,-227545
13.4,-227280
13.41,-227033
13.42,-226818
13.43,-226818
13.44,-226622
13.45,-226473
13.46,-226328
13.47,-226236
13.48,-226155
13.49,-226108
13.5,-226074
13.51,-226078
13.52,-226087
13.53,-226123
13.54,-226167
13.55,-226291
13.56,-226361
13.57,-226438
13.58,-226523
13.59,-226607
13.6,-226697
13.61,-226697
13.62,-226697
13.63,-226807
13.64,-227118
13.65,-227232
13.66,-227565
13.67,-227682
13.68,-227789
13.69,-227892
13.7,-227992
13.71,-228069
13.72,-228162
13.73,-228234
13.74,-228305
13.75,-228354
13.76,-228398
13.77,-228433
13.78,-228463
13.79,-228482
13.8,-228477
13.81,-228460
13.82,-228440
13.83,-228405
13.84,-228389
13.85,-228389
13.86,-228335
13.87,-228301
13.88,-228248
13.89,-228199
13.9,-228114
13.91,-228066
13.92,-228036
13.93,-227988
13.94,-227961
13.95,-227932
13.96,-227908
13.97,-227916
13.98,-227905
13.99,-227927
14,-227927
14.01,-227961
14.02,-227992
14.03,-228015
14.04,-228034
14.05,-228077
14.06,-228092
14.07,-228141
14.08,-228141
14.09,-228177
14.1,-228210
14.11,-228258
14.12,-228305
14.13,-228423
14.14,-228474
14.15,-228531
14.16,-228586
14.17,-228642
14.18,-228687
14.19,-228736
14.2,-228793
14.21,-228845
14.22,-228886
14.23,-228944
14.24,-229001
14.25,-229074
14.26,-229130
14.27,-229174
14.28,-229174
14.29,-229174
14.3,-229202
14.31,-229202
14.32,-229202
14.33,-229268
14.34,-229285
14.35,-229321
14.36,-229362
14.37,-229382
14.38,-229384
14.39,-229315
14.4,-229246
14.41,-229148
14.42,-229006
14.43,-228833
14.44,-228626
14.45,-228390
14.46,-228136
14.47,-227860
14.48,-227585
14.49,-227036
14.5,-226765
14.51,-226517
14.52,-226289
14.53,-226087
14.54,-225908
14.55,-225908
14.56,-225908
14.57,-225752
14.58,-225651
14.59,-225554
14.6,-225479
14.61,-225486
14.62,-225524
14.63,-225575
14.64,-225640
14.65,-225706
14.66,-225798
14.67,-225884
14.68,-225986
14.69,-226077
14.7,-226193
14.71,-226308
14.72,-226426
14.73,-226695
14.74,-226831
14.75,-226963
14.76,-227110
14.77,-227232
14.78,-227348
14.79,-227348
14.8,-227459
14.81,-227559
14.82,-227660
14.83,-227748
14.84,-227937
14.85,-227985
14.86,-228021
14.87,-228036
14.88,-228060
14.89,-228044
14.9,-228020
14.91,-228003
14.92,-227970
14.93,-227937
14.94,-227885
14.95,-227829
14.96,-227727
14.97,-227673
14.98,-227620
14.99,-227591
15,-227540
15.01,-227497
15.02,-227497
15.03,-227497
15.04,-227474
15.05,-227438
15.06,-227432
15.07,-227409
15.08,-227408
15.09,-227408
15.1,-227444
15.11,-227461
15.12,-227487
15.13,-227522
15.14,-227558
15.15,-227581
15.16,-227635
15.17,-227667
15.18,-227721
15.19,-227759
15.2,-227844
15.21,-227904
15.22,-227948
15.23,-227997
15.24,-228041
15.25,-228101
15.26,-228101
15.27,-228144
15.28,-228194
15.29,-228241
15.3,-228282
15.31,-228427
15.32,-228476
15.33,-228528
15.34,-228578
15.35,-228613
15.36,-228650
15.37,-228704
15.38,-228704
15.39,-228739
15.4,-228739
15.41,-228786
15.42,-228825
15.43,-228856
15.44,-228896
15.45,-228982
15.46,-229011
15.47,-229048
15.48,-229059
15.49,-229059
15.5,-229083
15.51,-229086
15.52,-229043
15.53,-228991
15.54,-228204
15.55,-227970
15.56,-227714
15.57,-227451
15.58,-227175
15.59,-226916
15.6,-226670
15.61,-226432
15.62,-226432
15.63,-226228
15.64,-226034
15.65,-225877
15.66,-225750
15.67,-225586
15.68,-225548
15.69,-225518
15.7,-225523
15.71,-225547
15.72,-225593
15.73,-225593
15.74,-225625
15.75,-225625
15.76,-225625
15.77,-225700
15.78,-225762
15.79,-225824
15.8,-226081
15.81,-226199
15.82,-226293
15.83,-226416
15.84,-226531
15.85,-226662
15.86,-226776
15.87,-226900
15.88,-227048
15.89,-227157
15.9,-227283
15.91,-227397
15.92,-227619
15.93,-227811
15.94,-227902
15.95,-227962
15.96,-228018
15.97,-228068
15.98,-228115
15.99,-228158
16,-228158
16.01,-228169
16.02,-228169
16.03,-228124
16.04,-228097
16.05,-228070
16.06,-228037
16.07,-228013
16.08,-227978
16.09,-227956
16.1,-227911
16.11,-227877
16.12,-227847
16.13,-227821
16.14,-227808
16.15,-227792
16.16,-227779
16.17,-227779
16.18,-227788
16.19,-227810
16.2,-227827
16.21,-227843
16.22,-227870
16.23,-227870
16.24,-227870
16.25,-227902
16.26,-228009
16.27,-228054
16.28,-228111
16.29,-228161
16.3,-228197
16.31,-228258
16.32,-228314
16.33,-228369
16.34,-228427
16.35,-228470
16.36,-228531
16.37,-228587
16.38,-228615
16.39,-228674
16.4,-228730
16.41,-228850
16.42,-228889
16.43,-228932
16.44,-228985
16.45,-229029
16.46,-229088
16.47,-229088
16.48,-229123
16.49,-229123
16.5,-229123
16.51,-229276
16.52,-229339
16.53,-229384
16.54,-229414
16.55,-229464
16.56,-229519
16.57,-229546
16.58,-229597
16.59,-229637
16.6,-229675
16.61,-229730
16.62,-229767
16.63,-229800
16.64,-229852
16.65,-229876
16.66,-229943
16.67,-229973
16.68,-230013
16.69,-230039
16.7,-230079
16.71,-230079
16.72,-230163
16.73,-230174
16.74,-230142
16.75,-230079
16.76,-230012
16.77,-229887
16.78,-229730
16.79,-229543
16.8,-229313
16.81,-229056
16.82,-228788
16.83,-228511
16.84,-228235
16.85,-227942
16.86,-227669
16.87,-227421
16.88,-227421
16.89,-226980
16.9,-226788
16.91,-226660
16.92,-226529
16.93,-226455
16.94,-226392
16.95,-226392
16.96,-226364
16.97,-226402
16.98,-226596
16.99,-226672
17,-226773
17.01,-226870
17.02,-226956
17.03,-227057
17.04,-227176
17.05,-227279
17.06,-227402
17.07,-227520
17.08,-227644
17.09,-227755
17.1,-227883
17.11,-228015
17.12,-228253
17.13,-228377
17.14,-228457
17.15,-228567
17.16,-228675
17.17,-228777
17.18,-228777
17.19,-228777
17.2,-228851
17.21,-228914
17.22,-228974
17.23,-229027
17.24,-229067
17.25,-229068
17.26,-229076
17.27,-229076
17.28,-229055
17.29,-229033
17.3,-229005
17.31,-228963
17.32,-228924
17.33,-228891
17.34,-228845
17.35,-228788
17.36,-228727
17.37,-228696
17.38,-228669
17.39,-228640
17.4,-228611
17.41,-228593
17.42,-228593
17.43,-228590
17.44,-228580
17.45,-228566
17.46,-228592
17.47,-228632
17.48,-228644
17.49,-228654
17.5,-228686
17.51,-228730
17.52,-228767
17.53,-228810
17.54,-228840
17.55,-228895
17.56,-228937
17.57,-228937
17.58,-228937
17.59,-228987
17.6,-229042
17.61,-229136
17.62,-229166
17.63,-229223
17.64,-229269
17.65,-229269
17.66,-229269
17.67,-229326
17.68,-229367
17.69,-229420
17.7,-229470
17.71,-229535
17.72,-229667
17.73,-229726
17.74,-229778
17.75,-229819
17.76,-229864
17.77,-229914
17.78,-229961
17.79,-230001
17.8,-230059
17.81,-230106
17.82,-230159
17.83,-230251
17.84,-230280
17.85,-230330
17.86,-230376
17.87,-230420
17.88,-230455
17.89,-230455
17.9,-230480
17.91,-230524
17.92,-230550
17.93,-230566
17.94,-230640
17.95,-230598
17.96,-230535
17.97,-230441
17.98,-230317
17.99,-230168
18,-229978
18.01,-229754
18.02,-229505
18.03,-229263
18.04,-229000
18.05,-228722
18.06,-228215
18.07,-227983
18.08,-227761
18.09,-227569
18.1,-227400
18.11,-227254
18.12,-227254
18.13,-227254
18.14,-227147
18.15,-227053
18.16,-226998
18.17,-226960
18.18,-226971
18.19,-227011
18.2,-227083
18.21,-227136
18.22,-227199
18.23,-227281
18.24,-227364
18.25,-227444
18.26,-227539
18.27,-227648
18.28,-227740
18.29,-227861
18.3,-228079
18.31,-228208
18.32,-228316
18.33,-228433
18.34,-228554
18.35,-228657
18.36,-228657
18.37,-228657
18.38,-228775
18.39,-228775
18.4,-228859
18.41,-228968
18.42,-229060
18.43,-229274
18.44,-229335
18.45,-229369
18.46,-229419
18.47,-229441
18.48,-229462
18.49,-229467
18.5,-229476
18.51,-229464
18.52,-229437
18.53,-229403
18.54,-229376
18.55,-229267
18.56,-229214
18.57,-229150
18.58,-229115
18.59,-229080
18.6,-229043
18.61,-229027
18.62,-228999
18.63,-228999
18.64,-228971
18.65,-228954
18.66,-228954
18.67,-228963
18.68,-228963
18.69,-228963
18.7,-228969
18.71,-228980
18.72,-229007
18.73,-229028
18.74,-229051
18.75,-229073
18.76,-229114
18.77,-229142
18.78,-229179
18.79,-229204
18.8,-229253
18.81,-229309
18.82,-229386
18.83,-229453
18.84,-229496
18.85,-229550
18.86,-229550
18.87,-229550
18.88,-229608
18.89,-229833
18.9,-229895
18.91,-229950
18.92,-229994
18.93,-230054
18.94,-230083
18.95,-230134
18.96,-230183
18.97,-230218
18.98,-230281
18.99,-230323
19,-230381
19.01,-230431
19.02,-230485
19.03,-230523
19.04,-230615
19.05,-230650
19.06,-230691
19.07,-230721
19.08,-230739
19.09,-230777
19.1,-230777
19.11,-230733
19.12,-230507
19.13,-230380
19.14,-230212
19.15,-230030
19.16,-229810
19.17,-229573
19.18,-229329
19.19,-229088
19.2,-228842
19.21,-228616
19.22,-228398
19.23,-228200
19.24,-228018
19.25,-227863
19.26,-227736
19.27,-227563
19.28,-227508
19.29,-227482
19.3,-227452
19.31,-227450
19.32,-227479
19.33,-227479
19.34,-227479
19.35,-227506
19.36,-227669
19.37,-227750
19.38,-227834
19.39,-227910
19.4,-228001
19.41,-228096
19.42,-228190
19.43,-228307
19.44,-228409
19.45,-228509
19.46,-228624
19.47,-228736
19.48,-228846
19.49,-228934
19.5,-229043
19.51,-229232
19.52,-229327
19.53,-229407
19.54,-229491
19.55,-229545
19.56,-229624
19.57,-229624
19.58,-229624
19.59,-229671
19.6,-229775
19.61,-229799
19.62,-229797
19.63,-229763
19.64,-229738
19.65,-229733
19.66,-229689
19.67,-229669
19.68,-229636
19.69,-229598
19.7,-229564
19.71,-229542
19.72,-229507
19.73,-229475
19.74,-229447
19.75,-229408
19.76,-229403
19.77,-229403
19.78,-229399
19.79,-229380
19.8,-229380
19.81,-229380
19.82,-229393
19.83,-229392
19.84,-229394
19.85,-229423
19.86,-229426
19.87,-229445
19.88,-229495
19.89,-229525
19.9,-229556
19.91,-229586
19.92,-229629
19.93,-229662
19.94,-229697
19.95,-229737
19.96,-229792
19.97,-229850
19.98,-229929
19.99,-229975
20,-230028
20.01,-230075
20.02,-230119
20.03,-230168
20.04,-230168
20.05,-230168
20.06,-230209
20.07,-230264
20.08,-230305
20.09,-230368
20.1,-230605
20.11,-230662
20.12,-230706
20.13,-230741
20.14,-230785
20.15,-230823
20.16,-230857
20.17,-230881
20.18,-230915
20.19,-230930
20.2,-230924
20.21,-230885
20.22,-230759
20.23,-230654
20.24,-230519
20.25,-230359
20.26,-230171
20.27,-229949
20.28,-229949
20.29,-229756
20.3,-229524
20.31,-229293
20.32,-229074
20.33,-228486
20.34,-228316
20.35,-228172
20.36,-228060
20.37,-227974
20.38,-227908
20.39,-227857
20.4,-227823
20.41,-227807
20.42,-227818
20.43,-227826
20.44,-227835
20.45,-227942
20.46,-227985
20.47,-228038
20.48,-228113
20.49,-228177
20.5,-228249
20.51,-228249
20.52,-228249
20.53,-228327
20.54,-228414
20.55,-228487
20.56,-228570
20.57,-228834
20.58,-228943
20.59,-229033
20.6,-229121
20.61,-229210
20.62,-229275
20.63,-229368
20.64,-229429
20.65,-229494
20.66,-229566
20.67,-229623
20.68,-229662
20.69,-229744
20.7,-229749
20.71,-229780
20.72,-229773
20.73,-229767
20.74,-229758
20.75,-229758
20.76,-229758
20.77,-229746
20.78,-229732
20.79,-229713
20.8,-229695
20.81,-229604
20.82,-229574
20.83,-229566
20.84,-229537
20.85,-229526
20.86,-229506
20.87,-229506
20.88,-229492
20.89,-229485
20.9,-229480
20.91,-229478
20.92,-229493
20.93,-229502
20.94,-229521
20.95,-229546
20.96,-229574
20.97,-229606
20.98,-229606
20.99,-229606
21,-229630
21.01,-229661
21.02,-229708
21.03,-229727
21.04,-229961
21.05,-230011
21.06,-230055
21.07,-230119
21.08,-230165
21.09,-230221
21.1,-230270
21.11,-230315
21.12,-230374
21.13,-230431
21.14,-230470
21.15,-230518
21.16,-230623
21.17,-230682
21.18,-230723
21.19,-230773
21.2,-230829
21.21,-230869
21.22,-230869
21.23,-230907
21.24,-230960
21.25,-231014
21.26,-231051
21.27,-231143
21.28,-231155
21.29,-231137
21.3,-231101
21.31,-231020
21.32,-230935
21.33,-230811
21.34,-230654
21.35,-230479
21.36,-230298
21.37,-230100
21.38,-229892
21.39,-229467
21.4,-229288
21.41,-229105
21.42,-228936
21.43,-228782
21.44,-228782
21.45,-228782
21.46,-228658
21.47,-228563
21.48,-228464
21.49,-228405
21.5,-228355
21.51,-228295
21.52,-228319
21.53,-228350
21.54,-228388
21.55,-228425
21.56,-228482
21.57,-228536
21.58,-228603
21.59,-228643
21.6,-228721
21.61,-228797
21.62,-228945
21.63,-229033
21.64,-229117
21.65,-229212
21.66,-229300
21.67,-229384
21.68,-229384
21.69,-229384
21.7,-229470
21.71,-229556
21.72,-229647
21.73,-229727
21.74,-229787
21.75,-229977
21.76,-230048
21.77,-230089
21.78,-230133
21.79,-230163
21.8,-230173
21.81,-230203
21.82,-230213
21.83,-230221
21.84,-230190
21.85,-230200
21.86,-230172
21.87,-230152
21.88,-230135
21.89,-230128
21.9,-230108
21.91,-230066
21.92,-230066
21.93,-230055
21.94,-230042
21.95,-230018
21.96,-230018
21.97,-230018
21.98,-229996
21.99,-229996
22,-229983
22.01,-229987
22.02,-229987
22.03,-229994
22.04,-230008
22.05,-230028
22.06,-230037
22.07,-230051
22.08,-230086
22.09,-230102
22.1,-230134
22.11,-230205
22.12,-230237
22.13,-230282
22.14,-230321
22.15,-230358
22.16,-230358
22.17,-230358
22.18,-230391
22.19,-230435
22.2,-230472
22.21,-230520
22.22,-230715
22.23,-230762
22.24,-230812
22.25,-230846
22.26,-230893
22.27,-230934
22.28,-230997
22.29,-231022
22.3,-231065
22.31,-231105
22.32,-231153
22.33,-231187
22.34,-231266
22.35,-231278
22.36,-231303
22.37,-231298
22.38,-231251
22.39,-231194
22.4,-231194
22.41,-231107
22.42,-230997
22.43,-230852
22.44,-230679
22.45,-230082
22.46,-229871
22.47,-229666
22.48,-229473
22.49,-229263
22.5,-229094
22.51,-228930
22.52,-228793
22.53,-228685
22.54,-228600
22.55,-228532
22.56,-228482
22.57,-228436
22.58,-228438
22.59,-228449
22.6,-228483
22.61,-228525
22.62,-228525
22.63,-228525
22.64,-228571
22.65,-228629
22.66,-228693
22.67,-228758
22.68,-229041
22.69,-229126
22.7,-229203
22.71,-229301
22.72,-229377
22.73,-229476
22.74,-229566
22.75,-229662
22.76,-229765
22.77,-229863
22.78,-229946
22.79,-230032
22.8,-230185
22.81,-230256
22.82,-230338
22.83,-230406
22.84,-230461
22.85,-230503
22.86,-230503
22.87,-230503
22.88,-230538
22.89,-230571
22.9,-230609
22.91,-230622
22.92,-230637
22.93,-230613
22.94,-230616
22.95,-230590
22.96,-230583
22.97,-230549
22.98,-230533
22.99,-230499
23,-230468
23.01,-230454
23.02,-230429
23.03,-230401
23.04,-230384
23.05,-230384
23.06,-230381
23.07,-230366
23.08,-230376
23.09,-230376
23.1,-230376
23.11,-230378
23.12,-230387
23.13,-230396
23.14,-230412
23.15,-230444
23.16,-230451
23.17,-230545
23.18,-230579
23.19,-230621
23.2,-230657
23.21,-230703
23.22,-230727
23.23,-230764
23.24,-230806
23.25,-230846
23.26,-230895
23.27,-230975
23.28,-231019
23.29,-231059
23.3,-231104
23.31,-231141
23.32,-231186
23.33,-231186
23.34,-231230
23.35,-231282
23.36,-231326
23.37,-231359
23.38,-231396
23.39,-231524
23.4,-231569
23.41,-231575
23.42,-231587
23.43,-231564
23.44,-231517
23.45,-231450
23.46,-231356
23.47,-231250
23.48,-231104
23.49,-230939
23.5,-230571
23.51,-230371
23.52,-230160
23.53,-229955
23.54,-229762
23.55,-229570
23.56,-229570
23.57,-229412
23.58,-229412
23.59,-229412
23.6,-229250
23.61,-229110
23.62,-228995
23.63,-228902
23.64,-228702
23.65,-228680
23.66,-228670
23.67,-228676
23.68,-228702
23.69,-228712
23.7,-228749
23.71,-228783
23.72,-228821
23.73,-228889
23.74,-228944
23.75,-228989
23.76,-229142
23.77,-229211
23.78,-229290
23.79,-229359
23.8,-229458
23.81,-229550
23.82,-229550
23.83,-229620
23.84,-229697
23.85,-229779
23.86,-230074
23.87,-230153
23.88,-230194
23.89,-230255
23.9,-230316
23.91,-230339
23.92,-230368
23.93,-230395
23.94,-230421
23.95,-230423
23.96,-230422
23.97,-230426
23.98,-230401
23.99,-230364
24,-230352
24.01,-230330
24.02,-230309
24.03,-230281
24.04,-230253
24.05,-230253
24.06,-230253
24.07,-230223
24.08,-230190
24.09,-230174
24.1,-230114
24.11,-230112
24.12,-230104
24.13,-230102
24.14,-230108
24.15,-230108
24.16,-230123
24.17,-230144
24.18,-230144
24.19,-230164
24.2,-230187
24.21,-230215
24.22,-230244
24.23,-230256
24.24,-230321
24.25,-230362
24.26,-230389
24.27,-230440
24.28,-230440
24.29,-230440
24.3,-230487
24.31,-230529
24.32,-230552
24.33,-230756
24.34,-230791
24.35,-230831
24.36,-230870
24.37,-230911
24.38,-230947
24.39,-230993
24.4,-231027
24.41,-231052
24.42,-231073
24.43,-231122
24.44,-231151
24.45,-231170
24.46,-231150
24.47,-231096
24.48,-231050
24.49,-230934
24.5,-230834
24.51,-230673
24.52,-230673
24.53,-230520
24.54,-230332
24.55,-230136
24.56,-229485
24.57,-229288
24.58,-229082
24.59,-228897
24.6,-228897
24.61,-228742
24.62,-228589
24.63,-228443
24.64,-228346
24.65,-228248
24.66,-228201
24.67,-228147
24.68,-228110
24.69,-228092
24.7,-228091
24.71,-228112
24.72,-228131
24.73,-228162
24.74,-228196
24.75,-228239
24.76,-228239
24.77,-228294
24.78,-228346
24.79,-228403
24.8,-228477
24.81,-228664
24.82,-228758
24.83,-228824
24.84,-228916
24.85,-228996
24.86,-229069
24.87,-229134
24.88,-229214
24.89,-229275
24.9,-229340
24.91,-229398
24.92,-229453
24.93,-229545
24.94,-229565
24.95,-229596
24.96,-229612
24.97,-229622
24.98,-229609
24.99,-229616
25,-229616
25.01,-229616
25.02,-229596
25.03,-229587
25.04,-229566
25.05,-229498
25.06,-229497
25.07,-229466
25.08,-229430
25.09,-229421
25.1,-229410
25.11,-229403
25.12,-229393
25.13,-229379
25.14,-229376
25.15,-229383
25.16,-229393
25.17,-229403
25.18,-229447
25.19,-229475
25.2,-229496
25.21,-229529
25.22,-229561
25.23,-229561
25.24,-229585
25.25,-229585
25.26,-229585
25.27,-229625
25.28,-229662
25.29,-229710
25.3,-229805
25.31,-229865
25.32,-229906
25.33,-229946
25.34,-229998
25.35,-230042
25.36,-230095
25.37,-230141
25.38,-230188
25.39,-230224
25.4,-230272
25.41,-230332
25.42,-230360
25.43,-230445
25.44,-230491
25.45,-230523
25.46,-230554
25.47,-230585
25.48,-230620
25.49,-230620
25.5,-230620
25.51,-230650
25.52,-230650
25.53,-230568
25.54,-230511
25.55,-230390
25.56,-230259
25.57,-230100
25.58,-229918
25.59,-229717
25.6,-229487
25.61,-229261
25.62,-229051
25.63,-228833
25.64,-228617
25.65,-228402
25.66,-228232
25.67,-228066
25.68,-227800
25.69,-227624
25.7,-227575
25.71,-227536
25.72,-227525
25.73,-227518
25.74,-227537
25.75,-227571
25.76,-227571
25.77,-227571
25.78,-227626
25.79,-227626
25.8,-227654
25.81,-227713
25.82,-227771
25.83,-227837
25.84,-227896
25.85,-227969
25.86,-228035
25.87,-228145
25.88,-228216
25.89,-228303
25.9,-228384
25.91,-228475
25.92,-228562
25.93,-228644
25.94,-228731
25.95,-228883
25.96,-229002
25.97,-229058
25.98,-229165
25.99,-229173
26,-229162
26.01,-229180
26.02,-229150
26.03,-229150
26.04,-229150
26.05,-229118
26.06,-229093
26.07,-229061
26.08,-229009
26.09,-228974
26.1,-228928
26.11,-228886
26.12,-228851
26.13,-228806
26.14,-228772
26.15,-228744
26.16,-228719
26.17,-228697
26.18,-228679
26.19,-228673
26.2,-228660
26.21,-228683
26.22,-228688
26.23,-228742
26.24,-228769
26.25,-228799
26.26,-228830
26.27,-228830
26.28,-228866
26.29,-228898
26.3,-228930
26.31,-228966
26.32,-229005
26.33,-229052
26.34,-229093
26.35,-229093
26.36,-229093
26.37,-229128
26.38,-229161
26.39,-229216
26.4,-229259
26.41,-229313
26.42,-229376
26.43,-229400
26.44,-229450
26.45,-229508
26.46,-229594
26.47,-229639
26.48,-229772
26.49,-229817
26.5,-229817
26.51,-229848
26.52,-229877
26.53,-229893
26.54,-229936
26.55,-229958
26.56,-229983
26.57,-230001
26.58,-230023
26.59,-230030
26.6,-230033
26.61,-230027
26.62,-230013
26.63,-229955
26.64,-229875
26.65,-229768
26.66,-229630
26.67,-229282
26.68,-229082
26.69,-228863
26.7,-228621
26.71,-227910
26.72,-227690
26.73,-227164
26.74,-227164
26.75,-227164
26.76,-227034
26.77,-226925
26.78,-226851
26.79,-226795
26.8,-226757
26.81,-226737
26.82,-226741
26.83,-226758
26.84,-226775
26.85,-226806
26.86,-226851
26.87,-226886
26.88,-226947
26.89,-227008
26.9,-227067
26.91,-227139
26.92,-227290
26.93,-227370
26.94,-227449
26.95,-227553
26.96,-227648
26.97,-227743
26.98,-227743
26.99,-227743
27,-228034
27.01,-228120
27.02,-228279
27.03,-228346
27.04,-228403
27.05,-228461
27.06,-228498
27.07,-228535
27.08,-228553
27.09,-228558
27.1,-228541
27.11,-228539
27.12,-228511
27.13,-228468
27.14,-228428
27.15,-228388
27.16,-228273
27.17,-228222
27.18,-228183
27.19,-228136
27.2,-228096
27.21,-228042
27.22,-228042
27.23,-228014
27.24,-227988
27.25,-227989
27.26,-227961
27.27,-227958
27.28,-227962
27.29,-227973
27.3,-228005
27.31,-228014
27.32,-228044
27.33,-228083
27.34,-228103
27.35,-228141
27.36,-228176
27.37,-228219
27.38,-228256
27.39,-228333
27.4,-228388
27.41,-228441
27.42,-228491
27.43,-228491
27.44,-228491
27.45,-228529
27.46,-228529
27.47,-228529
27.48,-228584
27.49,-228653
27.5,-228694
27.51,-228748
27.52,-228887
27.53,-228945
27.54,-228999
27.55,-229023
27.56,-229096
27.57,-229129
27.58,-229165
27.59,-229213
27.6,-229239
27.61,-229269
27.62,-229320
27.63,-229349
27.64,-229429
27.65,-229480
27.66,-229513
27.67,-229538
27.68,-229586
27.69,-229611
27.7,-229611
27.71,-229641
27.72,-229672
27.73,-229827
27.74,-229841
27.75,-229864
27.76,-229892
27.77,-229923
27.78,-229941
27.79,-229966
27.8,-229978
27.81,-229986
27.82,-230009
27.83,-230015
27.84,-230024
27.85,-230050
27.86,-230019
27.87,-229952
27.88,-229900
27.89,-229793
27.9,-229667
27.91,-229526
27.92,-229361
27.93,-229361
27.94,-229361
27.95,-229161
27.96,-228957
27.97,-228741
27.98,-228102
27.99,-227888
28,-227714
28.01,-227553
28.02,-227425
28.03,-227308
28.04,-227225
28.05,-227158
28.06,-227126
28.07,-227111
28.08,-227121
28.09,-227134
28.1,-227164
28.11,-227263
28.12,-227321
28.13,-227389
28.14,-227464
28.15,-227539
28.16,-227639
28.17,-227639
28.18,-227639
28.19,-227724
28.2,-227820
28.21,-227907
28.22,-228246
28.23,-228338
28.24,-228461
28.25,-228561
28.26,-228675
28.27,-228778
28.28,-228883
28.29,-228969
28.3,-229053
28.31,-229132
28.32,-229184
28.33,-229244
28.34,-229303
28.35,-229346
28.36,-229355
28.37,-229338
28.38,-229333
28.39,-229310
28.4,-229289
28.41,-229289
28.42,-229243
28.43,-229198
28.44,-229164
28.45,-229012
28.46,-228977
28.47,-228933
28.48,-228899
28.49,-228855
28.5,-228829
28.51,-228815
28.52,-228795
28.53,-228795
28.54,-228795
28.55,-228789
28.56,-228795
28.57,-228798
28.58,-228810
28.59,-228828
28.6,-228875
28.61,-228904
28.62,-228944
28.63,-228970
28.64,-228970
28.65,-228999
28.66,-229033
28.67,-229066
28.68,-229114
28.69,-229329
28.7,-229381
28.71,-229432
28.72,-229469
28.73,-229531
28.74,-229566
28.75,-229614
28.76,-229663
28.77,-229696
28.78,-229751
28.79,-229815
28.8,-229867
28.81,-229960
28.82,-230009
28.83,-230059
28.84,-230100
28.85,-230151
28.86,-230189
28.87,-230189
28.88,-230189
28.89,-230212
28.9,-230264
28.91,-230302
28.92,-230347
28.93,-230432
28.94,-230470
28.95,-230497
28.96,-230529
28.97,-230554
28.98,-230580
28.99,-230609
29,-230638
29.01,-230649
29.02,-230681
29.03,-230730
29.04,-230743
29.05,-230801
29.06,-230828
29.07,-230858
29.08,-230873
29.09,-230900
29.1,-230912
29.11,-230912
29.12,-230945
29.13,-230947
29.14,-230966
29.15,-230993
29.16,-231033
29.17,-231057
29.18,-231079
29.19,-231093
29.2,-231112
29.21,-231130
29.22,-231151
29.23,-231165
29.24,-231183
29.25,-231202
29.26,-231233
29.27,-231250
29.28,-231316
29.29,-231340
29.3,-231371
29.31,-231399
29.32,-231421
29.33,-231454
29.34,-231454
29.35,-231454
29.36,-231470
29.37,-231505
29.38,-231551
29.39,-231574
29.4,-231646
29.41,-231673
29.42,-231711
29.43,-231750
29.44,-231765
29.45,-231783
29.46,-231824
29.47,-231848
29.48,-231863
29.49,-231864
29.5,-231840
29.51,-231788
29.52,-231596
29.53,-231456
29.54,-231286
29.55,-231096
29.56,-230872
29.57,-230629
29.58,-230629
29.59,-230389
29.6,-230142
29.61,-229894
29.62,-229894
29.63,-229894
29.64,-229663
29.65,-229028
29.66,-228884
29.67,-228735
29.68,-228643
29.69,-228580
29.7,-228533
29.71,-228514
29.72,-228508
29.73,-228533
29.74,-228560
29.75,-228621
29.76,-228689
29.77,-228865
29.78,-228940
29.79,-229035
29.8,-229145
29.81,-229145
29.82,-229145
29.83,-229261
29.84,-229340
29.85,-229457
29.86,-229577
29.87,-230109
29.88,-230225
29.89,-230307
29.9,-230415
29.91,-230497
29.92,-230581
29.93,-230650
29.94,-230712
29.95,-230776
29.96,-230820
29.97,-230868
29.98,-230900
29.99,-230918
30,-230921
30.01,-230923
30.02,-230896
30.03,-230873
30.04,-230849
30.05,-230849
30.06,-230849
30.07,-230808
30.08,-230764
30.09,-230724
30.1,-230687
30.11,-230547
30.12,-230529
30.13,-230479
30.14,-230447
30.15,-230414
30.16,-230389
30.17,-230369
30.18,-230367
30.19,-230357
30.2,-230347
30.21,-230355
30.22,-230361
30.23,-230377
30.24,-230403
30.25,-230428
30.26,-230451
30.27,-230490
30.28,-230521
30.29,-230521
30.3,-230560
30.31,-230602
30.32,-230632
30.33,-230682
30.34,-230809
30.35,-230855
30.36,-230913
30.37,-230960
30.38,-231016
30.39,-231068
30.4,-231116
30.41,-231171
30.42,-231225
30.43,-231273
30.44,-231323
30.45,-231366
30.46,-231460
30.47,-231509
30.48,-231553
30.49,-231605
30.5,-231651
30.51,-231695
30.52,-231695
30.53,-231695
30.54,-231750
30.55,-231796
30.56,-231847
30.57,-231891
30.58,-232002
30.59,-232047
30.6,-232090
30.61,-232115
30.62,-232164
30.63,-232201
30.64,-232240
30.65,-232264
30.66,-232312
30.67,-232341
30.68,-232373
30.69,-232398
30.7,-232469
30.71,-232469
30.72,-232492
30.73,-232526
30.74,-232526
30.75,-232526
30.76,-232539
30.77,-232584
30.78,-232599
30.79,-232618
30.8,-232656
30.81,-232673
30.82,-232694
30.83,-232766
30.84,-232800
30.85,-232810
30.86,-232842
30.87,-232876
30.88,-232900
30.89,-232948
30.9,-232963
30.91,-232992
30.92,-233065
30.93,-233085
30.94,-233117
30.95,-233151
30.96,-233186
30.97,-233232
30.98,-233232
30.99,-233232
31,-233264
31.01,-233296
31.02,-233333
31.03,-233368
31.04,-233397
31.05,-233571
31.06,-233602
31.07,-233638
31.08,-233667
31.09,-233704
31.1,-233717
31.11,-233697
31.12,-233653
31.13,-233607
31.14,-233510
31.15,-233414
31.16,-233115
31.17,-232943
31.18,-232762
31.19,-232565
31.2,-232351
31.21,-232143
31.22,-232143
31.23,-231940
31.24,-231764
31.25,-231590
31.26,-231590
31.27,-231417
31.28,-231280
31.29,-230981
31.3,-230916
31.31,-230875
31.32,-230841
31.33,-230832
31.34,-230849
31.35,-230879
31.36,-230915
31.37,-230942
31.38,-230992
31.39,-231044
31.4,-231170
31.41,-231243
31.42,-231332
31.43,-231403
31.44,-231484
31.45,-231577
31.46,-231577
31.47,-231664
31.48,-231664
31.49,-231751
31.5,-231833
31.51,-231931
31.52,-232009
31.53,-232262
31.54,-232344
31.55,-232425
31.56,-232479
31.57,-232563
31.58,-232613
31.59,-232674
31.6,-232737
31.61,-232774
31.62,-232814
31.63,-232841
31.64,-232864
31.65,-232883
31.66,-232878
31.67,-232868
31.68,-232857
31.69,-232833
31.7,-232816
31.71,-232791
31.72,-232791
31.73,-232791
31.74,-232785
31.75,-232752
31.76,-232672
31.77,-232660
31.78,-232642
31.79,-232621
31.8,-232617
31.81,-232599
31.82,-232599
31.83,-232600
31.84,-232589
31.85,-232579
31.86,-232585
31.87,-232592
31.88,-232594
31.89,-232615
31.9,-232613
31.91,-232646
31.92,-232668
31.93,-232706
31.94,-232743
31.95,-232743
31.96,-232743
31.97,-232757
31.98,-232950
31.99,-233019
32,-233066
32.01,-233093
32.02,-233143
32.03,-233191
32.04,-233224
32.05,-233279
32.06,-233309
32.07,-233349
32.08,-233395
32.09,-233441
32.1,-233485
32.11,-233528
32.12,-233572
32.13,-233660
32.14,-233700
32.15,-233743
32.16,-233775
32.17,-233809
32.18,-233838
32.19,-233838
32.2,-233838
32.21,-233893
32.22,-234012
32.23,-234041
32.24,-234106
32.25,-234132
32.26,-234169
32.27,-234222
32.28,-234252
32.29,-234308
32.3,-234321
32.31,-234364
32.32,-234392
32.33,-234423
32.34,-234459
32.35,-234481
32.36,-234499
32.37,-234582
32.38,-234600
32.39,-234640
32.4,-234668
32.41,-234687
32.42,-234721
32.43,-234721
32.44,-234742
32.45,-234827
32.46,-234851
32.47,-234872
32.48,-234890
32.49,-234919
32.5,-234934
32.51,-234943
32.52,-234936
32.53,-234923
32.54,-234871
32.55,-234825
32.56,-234742
32.57,-234654
32.58,-234529
32.59,-234405
32.6,-234149
32.61,-233993
32.62,-233836
32.63,-233700
32.64,-233549
32.65,-233407
32.66,-233407
32.67,-233407
32.68,-233272
32.69,-232950
32.7,-232882
32.71,-232712
32.72,-232698
32.73,-232676
32.74,-232669
32.75,-232673
32.76,-232692
32.77,-232700
32.78,-232720
32.79,-232749
32.8,-232786
32.81,-232834
32.82,-232873
32.83,-232927
32.84,-233025
32.85,-233075
32.86,-233131
32.87,-233206
32.88,-233261
32.89,-233326
32.9,-233326
32.91,-233326
32.92,-233326
32.93,-233398
32.94,-233454
32.95,-233521
32.96,-233595
32.97,-233704
32.98,-233766
32.99,-233808
33,-233873
33.01,-233908
33.02,-233953
33.03,-233991
33.04,-234028
33.05,-234064
33.06,-234086
33.07,-234123
33.08,-234136
33.09,-234163
33.1,-234177
33.11,-234156
33.12,-234163
33.13,-234163
33.14,-234163
33.15,-234148
33.16,-234150
33.17,-234126
33.18,-234110
33.19,-234046
33.2,-234038
33.21,-234026
33.22,-234013
33.23,-234015
33.24,-234010
33.25,-234007
33.26,-234001
33.27,-234004
33.28,-234010
33.29,-234019
33.3,-234033
33.31,-234067
33.32,-234092
33.33,-234101
33.34,-234112
33.35,-234145
33.36,-234160
33.37,-234160
33.38,-234198
33.39,-234222
33.4,-234253
33.41,-234280
33.42,-234372
33.43,-234404
33.44,-234421
33.45,-234453
33.46,-234477
33.47,-234521
33.48,-234534
33.49,-234580
33.5,-234608
33.51,-234632
33.52,-234663
33.53,-234702
33.54,-234765
33.55,-234802
33.56,-234828
33.57,-234843
33.58,-234887
33.59,-234909
33.6,-234909
33.61,-234909
33.62,-234931
33.63,-234956
33.64,-234999
33.65,-235029
33.66,-235127
33.67,-235147
33.68,-235171
33.69,-235190
33.7,-235207
33.71,-235236
33.72,-235257
33.73,-235266
33.74,-235313
33.75,-235312
33.76,-235356
33.77,-235354
33.78,-235333
33.79,-235315
33.8,-235283
33.81,-235225
33.82,-235148
33.83,-235058
33.84,-235058
33.85,-234938
33.86,-234825
33.87,-234699
33.88,-234572
33.89,-234159
33.9,-234016
33.91,-233887
33.92,-233760
33.93,-233760
33.94,-233638
33.95,-233552
33.96,-233454
33.97,-233371
33.98,-233309
33.99,-233247
34,-233247
34.01,-233190
34.02,-233157
34.03,-233124
34.04,-233101
34.05,-233098
34.06,-233096
34.07,-233096
34.08,-233096
34.09,-233112
34.1,-233119
34.11,-233148
34.12,-233159
34.13,-233187
34.14,-233212
34.15,-233317
34.16,-233355
34.17,-233407
34.18,-233450
34.19,-233496
34.2,-233552
34.21,-233591
34.22,-233644
34.23,-233688
34.24,-233745
34.25,-233836
34.26,-233879
34.27,-233923
34.28,-233950
34.29,-233992
34.3,-234008
34.31,-234008
34.32,-234008
34.33,-234044
34.34,-234065
34.35,-234090
34.36,-234113
34.37,-234123
34.38,-234124
34.39,-234107
34.4,-234108
34.41,-234083
34.42,-234072
34.43,-234058
34.44,-234049
34.45,-234031
34.46,-234025
34.47,-234019
34.48,-233992
34.49,-233976
34.5,-233963
34.51,-233970
34.52,-233967
34.53,-233966
34.54,-233956
34.55,-233956
34.56,-233948
34.57,-233957
34.58,-233967
34.59,-233971
34.6,-234002
34.61,-234012
34.62,-234029
34.63,-234053
34.64,-234072
34.65,-234089
34.66,-234124
34.67,-234128
34.68,-234152
34.69,-234189
34.7,-234190
34.71,-234216
34.72,-234264
34.73,-234285
34.74,-234307
34.75,-234337
34.76,-234365
34.77,-234390
34.78,-234390
34.79,-234390
34.8,-234417
34.81,-234446
34.82,-234473
34.83,-234501
34.84,-234581
34.85,-234615
34.86,-234633
34.87,-234652
34.88,-234673
34.89,-234711
34.9,-234715
34.91,-234739
34.92,-234762
34.93,-234787
34.94,-234786
34.95,-234805
34.96,-234778
34.97,-234748
34.98,-234691
34.99,-234624
35,-234540
35.01,-234442
35.02,-234442
35.03,-234314
35.04,-234208
35.05,-234076
35.06,-233960
35.07,-233573
35.08,-233458
35.09,-233458
35.1,-233458
35.11,-233350
35.12,-233250
35.13,-233161
35.14,-233091
35.15,-233005
35.16,-232944
35.17,-232899
35.18,-232846
35.19,-232813
35.2,-232795
35.21,-232782
35.22,-232776
35.23,-232778
35.24,-232792
35.25,-232792
35.26,-232792
35.27,-232813
35.28,-232819
35.29,-232839
35.3,-232865
35.31,-233027
35.32,-233071
35.33,-233111
35.34,-233160
35.35,-233212
35.36,-233251
35.37,-233313
35.38,-233338
35.39,-233381
35.4,-233405
35.41,-233453
35.42,-233495
35.43,-233565
35.44,-233588
35.45,-233613
35.46,-233641
35.47,-233654
35.48,-233661
35.49,-233661
35.5,-233661
35.51,-233683
35.52,-233686
35.53,-233682
35.54,-233678
35.55,-233678
35.56,-233673
35.57,-233658
35.58,-233648
35.59,-233631
35.6,-233623
35.61,-233613
35.62,-233588
35.63,-233596
35.64,-233587
35.65,-233580
35.66,-233576
35.67,-233567
35.68,-233569
35.69,-233562
35.7,-233563
35.71,-233571
35.72,-233572
35.73,-233572
35.74,-233586
35.75,-233587
35.76,-233600
35.77,-233611
35.78,-233655
35.79,-233673
35.8,-233682
35.81,-233718
35.82,-233735
35.83,-233765
35.84,-233780
35.85,-233821
35.86,-233831
35.87,-233861
35.88,-233878
35.89,-233910
35.9,-233958
35.91,-233985
35.92,-234010
35.93,-234056
35.94,-234081
35.95,-234091
35.96,-234091
35.97,-234123
35.98,-234158
35.99,-234189
36,-234211
36.01,-234283
36.02,-234324
36.03,-234337
36.04,-234367
36.05,-234395
36.06,-234407
36.07,-234440
36.08,-234445
36.09,-234448
36.1,-234430
36.11,-234393
36.12,-234336
36.13,-234180
36.14,-234075
36.15,-233958
36.16,-233837
36.17,-233837
36.18,-233837
36.19,-233712
36.2,-233712
36.21,-233712
36.22,-233602
36.23,-233467
36.24,-233347
36.25,-233240
36.26,-233131
36.27,-232803
36.28,-232748
36.29,-232688
36.3,-232632
36.31,-232587
36.32,-232567
36.33,-232525
36.34,-232516
36.35,-232512
36.36,-232511
36.37,-232524
36.38,-232541
36.39,-232549
36.4,-232556
36.41,-232579
36.42,-232606
36.43,-232625
36.44,-232625
36.45,-232625
36.46,-232663
36.47,-232693
36.48,-232741
36.49,-232957
36.5,-233012
36.51,-233044
36.52,-233107
36.53,-233149
36.54,-233190
36.55,-233220
36.56,-233271
36.57,-233296
36.58,-233338
36.59,-233362
36.6,-233385
36.61,-233399
36.62,-233428
36.63,-233434
36.64,-233446
36.65,-233447
36.66,-233452
36.67,-233449
36.68,-233457
36.69,-233457
36.7,-233444
36.71,-233442
36.72,-233424
36.73,-233412
36.74,-233409
36.75,-233389
36.76,-233372
36.77,-233362
36.78,-233355
36.79,-233366
36.8,-233361
36.81,-233368
36.82,-233379
36.83,-233375
36.84,-233388
36.85,-233399
36.86,-233420
36.87,-233442
36.88,-233443
36.89,-233465
36.9,-233486
36.91,-233510
36.92,-233510
36.93,-233510
36.94,-233530
36.95,-233559
36.96,-233631
36.97,-233655
36.98,-233675
36.99,-233718
37,-233737
37.01,-233765
37.02,-233793
37.03,-233816
37.04,-233856
37.05,-233897
37.06,-233905
37.07,-233955
37.08,-233976
37.09,-234020
37.1,-234085
37.11,-234119
37.12,-234138
37.13,-234181
37.14,-234198
37.15,-234230
37.16,-234230
37.17,-234279
37.18,-234298
37.19,-234354
37.2,-234387
37.21,-234368
37.22,-234338
37.23,-234289
37.24,-234219
37.25,-234145
37.26,-234062
37.27,-234062
37.28,-234062
37.29,-233951
37.3,-233840
37.31,-233700
37.32,-233570
37.33,-233455
37.34,-233326
37.35,-233078
37.36,-232967
37.37,-232862
37.38,-232762
37.39,-232762
37.4,-232762
37.41,-232656
37.42,-232590
37.43,-232537
37.44,-232379
37.45,-232378
37.46,-232371
37.47,-232388
37.48,-232395
37.49,-232406
37.5,-232434
37.51,-232452
37.52,-232473
37.53,-232512
37.54,-232539
37.55,-232574
37.56,-232615
37.57,-232693
37.58,-232752
37.59,-232787
37.6,-232838
37.61,-232881
37.62,-232944
37.63,-232944
37.64,-232944
37.65,-232994
37.66,-233047
37.67,-233086
37.68,-233236
37.69,-233262
37.7,-233287
37.71,-233312
37.72,-233340
37.73,-233369
37.74,-233373
37.75,-233372
37.76,-233389
37.77,-233389
37.78,-233391
37.79,-233384
37.8,-233387
37.81,-233372
37.82,-233357
37.83,-233346
37.84,-233347
37.85,-233328
37.86,-233309
37.87,-233309
37.88,-233316
37.89,-233312
37.9,-233308
37.91,-233312
37.92,-233300
37.93,-233303
37.94,-233305
37.95,-233319
37.96,-233325
37.97,-233340
37.98,-233348
37.99,-233364
38,-233383
38.01,-233383
38.02,-233412
38.03,-233425
38.04,-233484
38.05,-233512
38.06,-233547
38.07,-233558
38.08,-233591
38.09,-233628
38.1,-233628
38.11,-233628
38.12,-233653
38.13,-233686
38.14,-233718
38.15,-233743
38.16,-233847
38.17,-233863
38.18,-233898
38.19,-233915
38.2,-233964
38.21,-233995
38.22,-234015
38.23,-234043
38.24,-234071
38.25,-234096
38.26,-234156
38.27,-234194
38.28,-234212
38.29,-234203
38.3,-234212
38.31,-234192
38.32,-234173
38.33,-234124
38.34,-234124
38.35,-234030
38.36,-233958
38.37,-233958
38.38,-233958
38.39,-233865
38.4,-233750
38.41,-233310
38.42,-233170
38.43,-233018
38.44,-232872
38.45,-232725
38.46,-232600
38.47,-232474
38.48,-232346
38.49,-232270
38.5,-232174
38.51,-232103
38.52,-232032
38.53,-231948
38.54,-231920
38.55,-231918
38.56,-231911
38.57,-231911
38.58,-231911
38.59,-231897
38.6,-231908
38.61,-231912
38.62,-231939
38.63,-232083
38.64,-232129
38.65,-232148
38.66,-232212
38.67,-232267
38.68,-232318
38.69,-232360
38.7,-232402
38.71,-232455
38.72,-232522
38.73,-232557
38.74,-232615
38.75,-232701
38.76,-232739
38.77,-232782
38.78,-232801
38.79,-232823
38.8,-232844
38.81,-232844
38.82,-232866
38.83,-232873
38.84,-232881
38.85,-232862
38.86,-232841
38.87,-232839
38.88,-232819
38.89,-232804
38.9,-232781
38.91,-232765
38.92,-232735
38.93,-232706
38.94,-232697
38.95,-232683
38.96,-232671
38.97,-232640
38.98,-232619
38.99,-232603
39,-232597
39.01,-232600
39.02,-232599
39.03,-232602
39.04,-232602
39.05,-232602
39.06,-232597
39.07,-232595
39.08,-232625
39.09,-232642
39.1,-232678
39.11,-232703
39.12,-232724
39.13,-232735
39.14,-232771
39.15,-232781
39.16,-232816
39.17,-232845
39.18,-232875
39.19,-232915
39.2,-232935
39.21,-232965
39.22,-233026
39.23,-233057
39.24,-233084
39.25,-233117
39.26,-233155
39.27,-233200
39.28,-233200
39.29,-233233
39.3,-233264
39.31,-233297
39.32,-233337
39.33,-233430
39.34,-233461
39.35,-233491
39.36,-233514
39.37,-233538
39.38,-233570
39.39,-233592
39.4,-233600
39.41,-233617
39.42,-233600
39.43,-233580
39.44,-233512
39.45,-233512
39.46,-233512
39.47,-233345
39.48,-233242
39.49,-233099
39.5,-232946
39.51,-232946
39.52,-232946
39.53,-232788
39.54,-232606
39.55,-232416
39.56,-232223
39.57,-232047
39.58,-231866
39.59,-231344
39.6,-231220
39.61,-231081
39.62,-230983
39.63,-230912
39.64,-230837
39.65,-230780
39.66,-230718
39.67,-230691
39.68,-230675
39.69,-230671
39.7,-230676
39.71,-230697
39.72,-230725
39.73,-230747
39.74,-230792
39.75,-230792
39.76,-230792
39.77,-230813
39.78,-230861
39.79,-230896
39.8,-230923
39.81,-231175
39.82,-231235
39.83,-231292
39.84,-231340
39.85,-231401
39.86,-231458
39.87,-231504
39.88,-231538
39.89,-231589
39.9,-231625
39.91,-231648
39.92,-231688
39.93,-231720
39.94,-231720
39.95,-231727
39.96,-231715
39.97,-231712
39.98,-231684
39.99,-231684
40,-231667
40.01,-231643
40.02,-231630
40.03,-231598
40.04,-231511
40.05,-231475
40.06,-231448
40.07,-231418
40.08,-231393
40.09,-231370
40.1,-231354
40.11,-231340
40.12,-231324
40.13,-231313
40.14,-231309
40.15,-231316
40.16,-231331
40.17,-231337
40.18,-231351
40.19,-231382
40.2,-231397
40.21,-231410
40.22,-231410
40.23,-231410
40.24,-231452
40.25,-231474
40.26,-231492
40.27,-231524
40.28,-231624
40.29,-231635
40.3,-231687
40.31,-231715
40.32,-231738
40.33,-231786
40.34,-231829
40.35,-231867
40.36,-231906
40.37,-231937
40.38,-231976
40.39,-232001
40.4,-232098
40.41,-232126
40.42,-232165
40.43,-232200
40.44,-232242
40.45,-232276
40.46,-232276
40.47,-232313
40.48,-232335
40.49,-232347
40.5,-232391
40.51,-232456
40.52,-232486
40.53,-232516
40.54,-232518
40.55,-232518
40.56,-232517
40.57,-232517
40.58,-232500
40.59,-232472
40.6,-232401
40.61,-232324
40.62,-232215
40.63,-232081
40.64,-231934
40.65,-231549
40.66,-231352
40.67,-231140
40.68,-230935
40.69,-230935
40.7,-230725
40.71,-230519
40.72,-230331
40.73,-230131
40.74,-230131
40.75,-229515
40.76,-229449
40.77,-229419
40.78,-229373
40.79,-229367
40.8,-229365
40.81,-229371
40.82,-229373
40.83,-229412
40.84,-229437
40.85,-229476
40.86,-229514
40.87,-229606
40.88,-229649
40.89,-229699
40.9,-229757
40.91,-229824
40.92,-229883
40.93,-229883
40.94,-229941
40.95,-230000
40.96,-230070
40.97,-230138
40.98,-230348
40.99,-230407
41,-230463
41.01,-230517
41.02,-230559
41.03,-230603
41.04,-230641
41.05,-230681
41.06,-230690
41.07,-230680
41.08,-230708
41.09,-230709
41.1,-230665
41.11,-230643
41.12,-230612
41.13,-230586
41.14,-230547
41.15,-230502
41.16,-230465
41.17,-230465
41.18,-230465
41.19,-230428
41.2,-230380
41.21,-230344
41.22,-230239
41.23,-230240
41.24,-230223
41.25,-230214
41.26,-230194
41.27,-230192
41.28,-230190
41.29,-230214
41.3,-230228
41.31,-230229
41.32,-230261
41.33,-230279
41.34,-230298
41.35,-230343
41.36,-230368
41.37,-230409
41.38,-230425
41.39,-230467
41.4,-230496
41.41,-230496
41.42,-230531
41.43,-230571
41.44,-230609
41.45,-230729
41.46,-230771
41.47,-230817
41.48,-230836
41.49,-230879
41.5,-230906
41.51,-230944
41.52,-230994
41.53,-231021
41.54,-231039
41.55,-231089
41.56,-231121
41.57,-231148
41.58,-231200
41.59,-231238
41.6,-231269
41.61,-231303
41.62,-231326
41.63,-231326
41.64,-231326
41.65,-231341
41.66,-231341
41.67,-231341
41.68,-231378
41.69,-231398
41.7,-231423
41.71,-231482
41.72,-231513
41.73,-231524
41.74,-231539
41.75,-231556
41.76,-231567
41.77,-231602
41.78,-231621
41.79,-231617
41.8,-231638
41.81,-231637
41.82,-231646
41.83,-231666
41.84,-231673
41.85,-231672
41.86,-231632
41.87,-231610
41.88,-231561
41.89,-231500
41.9,-231500
41.91,-231419
41.92,-230582
41.93,-230375
41.94,-230138
41.95,-229912
41.96,-229678
41.97,-229463
41.98,-229254
41.99,-229074
42,-228923
42.01,-228781
42.02,-228670
42.03,-228597
42.04,-228511
42.05,-228475
42.06,-228457
42.07,-228437
42.08,-228443
42.09,-228471
42.1,-228517
42.11,-228565
42.12,-228603
42.13,-228603
42.14,-228603
42.15,-228658
42.16,-228897
42.17,-228962
42.18,-229038
42.19,-229101
42.2,-229179
42.21,-229252
42.22,-229335
42.23,-229413
42.24,-229497
42.25,-229559
42.26,-229628
42.27,-229711
42.28,-229772
42.29,-229835
42.3,-229907
42.31,-229991
42.32,-230022
42.33,-230048
42.34,-230055
42.35,-230059
42.36,-230065
42.37,-230065
42.38,-230040
42.39,-230023
42.4,-229901
42.41,-229869
42.42,-229811
42.43,-229778
42.44,-229726
42.45,-229688
42.46,-229653
42.47,-229610
42.48,-229579
42.49,-229541
42.5,-229529
42.51,-229518
42.52,-229512
42.53,-229508
42.54,-229529
42.55,-229525
42.56,-229536
42.57,-229563
42.58,-229580
42.59,-229605
42.6,-229605
42.61,-229605
42.62,-229645
42.63,-229664
42.64,-229788
42.65,-229840
42.66,-229889
42.67,-229933
42.68,-229972
42.69,-230020
42.7,-230067
42.71,-230120
42.72,-230167
42.73,-230167
42.74,-230214
42.75,-230257
42.76,-230306
42.77,-230363
42.78,-230399
42.79,-230476
42.8,-230523
42.81,-230568
42.82,-230607
42.83,-230607
42.84,-230607
42.85,-230633
42.86,-230682
42.87,-230721
42.88,-230754
42.89,-230910
42.9,-230956
42.91,-230991
42.92,-231024
42.93,-231042
42.94,-231078
42.95,-231104
42.96,-231139
42.97,-231167
42.98,-231187
42.99,-231215
43,-231236
43.01,-231277
43.02,-231291
43.03,-231300
43.04,-231326
43.05,-231343
43.06,-231351
43.07,-231351
43.08,-231351
43.09,-231375
43.1,-231377
43.11,-231396
43.12,-231406
43.13,-231431
43.14,-231468
43.15,-231469
43.16,-231481
43.17,-231506
43.18,-231506
43.19,-231516
43.2,-231527
43.21,-231548
43.22,-231552
43.23,-231582
43.24,-231592
43.25,-231629
43.26,-231639
43.27,-231658
43.28,-231674
43.29,-231691
43.3,-231710
43.31,-231710
43.32,-231720
43.33,-231744
43.34,-231766
43.35,-231776
43.36,-231854
43.37,-231858
43.38,-231892
43.39,-231908
43.4,-231938
43.41,-231962
43.42,-231975
43.43,-232006
43.44,-232022
43.45,-232043
43.46,-232064
43.47,-232100
43.48,-232152
43.49,-232168
43.5,-232205
43.51,-232225
43.52,-232245
43.53,-232267
43.54,-232267
43.55,-232267
43.56,-232306
43.57,-232326
43.58,-232342
43.59,-232371
43.6,-232439
43.61,-232471
43.62,-232484
43.63,-232509
43.64,-232526
43.65,-232545
43.66,-232559
43.67,-232546
43.68,-232535
43.69,-232495
43.7,-232434
43.71,-232338
43.72,-232052
43.73,-231860
43.74,-231627
43.75,-231403
43.76,-231139
43.77,-230881
43.78,-230601
43.79,-230601
43.8,-230328
43.81,-230328
43.82,-230063
43.83,-230063
43.84,-230063
43.85,-229819
43.86,-229220
43.87,-229083
43.88,-228968
43.89,-228887
43.9,-228825
43.91,-228788
43.92,-228784
43.93,-228793
43.94,-228813
43.95,-228853
43.96,-228898
43.97,-228971
43.98,-229031
43.99,-229164
44,-229325
44.01,-229404
44.02,-229482
44.03,-229555
44.04,-229630
44.05,-229630
44.06,-229630
44.07,-230089
44.08,-230196
44.09,-230276
44.1,-230366
44.11,-230440
44.12,-230505
44.13,-230573
44.14,-230619
44.15,-230661
44.16,-230696
44.17,-230730
44.18,-230731
44.19,-230738
44.2,-230747
44.21,-230736
44.22,-230699
44.23,-230651
44.24,-230604
44.25,-230552
44.26,-230504
44.27,-230444
44.28,-230393
44.29,-230393
44.3,-230227
44.31,-230174
44.32,-230126
44.33,-230096
44.34,-230069
44.35,-230023
44.36,-230017
44.37,-230007
44.38,-229989
44.39,-229997
44.4,-229986
44.41,-230005
44.42,-230020
44.43,-230048
44.44,-230070
44.45,-230097
44.46,-230158
44.47,-230195
44.48,-230244
44.49,-230297
44.5,-230346
44.51,-230413
44.52,-230413
44.53,-230413
44.54,-230593
44.55,-230660
44.56,-230729
44.57,-230795
44.58,-230875
44.59,-230921
44.6,-230988
44.61,-231055
44.62,-231102
44.63,-231167
44.64,-231207
44.65,-231263
44.66,-231322
44.67,-231362
44.68,-231420
44.69,-231465
44.7,-231540
44.71,-231607
44.72,-231641
44.73,-231677
44.74,-231707
44.75,-231763
44.76,-231763
44.77,-231850
44.78,-231874
44.79,-231905
44.8,-231924
44.81,-231949
44.82,-231965
44.83,-231993
44.84,-232004
44.85,-232023
44.86,-232034
44.87,-232047
44.88,-232054
44.89,-232065
44.9,-232069
44.91,-232069
44.92,-232069
44.93,-232090
44.94,-232092
44.95,-232124
44.96,-232119
44.97,-232126
44.98,-232150
44.99,-232166
45,-232166
45.01,-232166
45.02,-232173
45.03,-232190
45.04,-232247
45.05,-232260
45.06,-232286
45.07,-232313
45.08,-232322
45.09,-232323
45.1,-232348
45.11,-232366
45.12,-232386
45.13,-232406
45.14,-232446
45.15,-232454
45.16,-232486
45.17,-232508
45.18,-232560
45.19,-232587
45.2,-232611
45.21,-232628
45.22,-232650
45.23,-232672
45.24,-232672
45.25,-232712
45.26,-232738
45.27,-232769
45.28,-232881
45.29,-232917
45.3,-232942
45.31,-232982
45.32,-233015
45.33,-233038
45.34,-233054
45.35,-233100
45.36,-233139
45.37,-233161
45.38,-233201
45.39,-233220
45.4,-233259
45.41,-233315
45.42,-233361
45.43,-233395
45.44,-233417
45.45,-233440
45.46,-233458
45.47,-233458
45.48,-233458
45.49,-233465
45.5,-233466
45.51,-233435
45.52,-233164
45.53,-233009
45.54,-232837
45.55,-232631
45.56,-232402
45.57,-232161
45.58,-231917
45.59,-231667
45.6,-231421
45.61,-231173
45.62,-230932
45.63,-230712
45.64,-230526
45.65,-230214
45.66,-230105
45.67,-230004
45.68,-229924
45.69,-229891
45.7,-229872
45.71,-229872
45.72,-229872
45.73,-229877
45.74,-229890
45.75,-229903
45.76,-230057
45.77,-230112
45.78,-230190
45.79,-230270
45.8,-230347
45.81,-230420
45.82,-230519
45.83,-230583
45.84,-230673
45.85,-230755
45.86,-230858
45.87,-230938
45.88,-231015
45.89,-231204
45.9,-231301
45.91,-231385
45.92,-231472
45.93,-231545
45.94,-231615
45.95,-231615
45.96,-231687
45.97,-231738
45.98,-231790
45.99,-231924
46,-231941
46.01,-231941
46.02,-231941
46.03,-231950
46.04,-231949
46.05,-231956
46.06,-231935
46.07,-231925
46.08,-231893
46.09,-231876
46.1,-231848
46.11,-231787
46.12,-231758
46.13,-231722
46.14,-231634
46.15,-231585
46.16,-231570
46.17,-231523
46.18,-231523
46.19,-231489
46.2,-231473
46.21,-231449
46.22,-231438
46.23,-231425
46.24,-231439
46.25,-231447
46.26,-231459
46.27,-231495
46.28,-231518
46.29,-231549
46.3,-231568
46.31,-231605
46.32,-231660
46.33,-231688
46.34,-231737
46.35,-231828
46.36,-231883
46.37,-231921
46.38,-231991
46.39,-232022
46.4,-232087
46.41,-232087
46.42,-232087
46.43,-232135
46.44,-232182
46.45,-232232
46.46,-232302
46.47,-232436
46.48,-232492
46.49,-232533
46.5,-232585
46.51,-232627
46.52,-232664
46.53,-232716
46.54,-232768
46.55,-232811
46.56,-232840
46.57,-232882
46.58,-232910
46.59,-233004
46.6,-233039
46.61,-233089
46.62,-233115
46.63,-233148
46.64,-233190
46.65,-233190
46.66,-233190
46.67,-233223
46.68,-233264
46.69,-233290
46.7,-233309
46.71,-233400
46.72,-233408
46.73,-233435
46.74,-233445
46.75,-233466
46.76,-233503
46.77,-233527
46.78,-233554
46.79,-233578
46.8,-233592
46.81,-233595
46.82,-233614
46.83,-233648
46.84,-233679
46.85,-233683
46.86,-233722
46.87,-233722
46.88,-233735
46.89,-233735
46.9,-233760
46.91,-233775
46.92,-233809
46.93,-233815
46.94,-233868
46.95,-233887
46.96,-233922
46.97,-233918
46.98,-233955
46.99,-233980
47,-234006
47.01,-234026
47.02,-234051
47.03,-234095
47.04,-234108
47.05,-234139
47.06,-234200
47.07,-234238
47.08,-234270
47.09,-234270
47.1,-234270
47.11,-234307
47.12,-234307
47.13,-234307
47.14,-234346
47.15,-234397
47.16,-234419
47.17,-234448
47.18,-234489
47.19,-234513
47.2,-234549
47.21,-234525
47.22,-234484
47.23,-234404
47.24,-234277
47.25,-234148
47.26,-233969
47.27,-233789
47.28,-233583
47.29,-233334
47.3,-232829
47.31,-232563
47.32,-232304
47.33,-232051
47.34,-231826
47.35,-231596
47.36,-231596
47.37,-231405
47.38,-231235
47.39,-231081
47.4,-230950
47.41,-230685
47.42,-230693
47.43,-230723
47.44,-230745
47.45,-230776
47.46,-230821
47.47,-230875
47.48,-230932
47.49,-231009
47.5,-231082
47.51,-231145
47.52,-231221
47.53,-231350
47.54,-231417
47.55,-231513
47.56,-231590
47.57,-231668
47.58,-231750
47.59,-231750
47.6,-231750
47.61,-231838
47.62,-231937
47.63,-231990
47.64,-232080
47.65,-232275
47.66,-232352
47.67,-232392
47.68,-232432
47.69,-232481
47.7,-232497
47.71,-232533
47.72,-232558
47.73,-232554
47.74,-232547
47.75,-232547
47.76,-232531
47.77,-232470
47.78,-232431
47.79,-232398
47.8,-232348
47.81,-232303
47.82,-232248
47.83,-232248
47.84,-232204
47.85,-232153
47.86,-232093
47.87,-232057
47.88,-231945
47.89,-231931
47.9,-231890
47.91,-231864
47.92,-231861
47.93,-231860
47.94,-231849
47.95,-231862
47.96,-231866
47.97,-231870
47.98,-231890
47.99,-231917
48,-231976
48.01,-231999
48.02,-232044
48.03,-232079
48.04,-232121
48.05,-232166
48.06,-232166
48.07,-232166
48.08,-232213
48.09,-232236
48.1,-232286
48.11,-232342
48.12,-232475
48.13,-232533
48.14,-232573
48.15,-232618
48.16,-232672
48.17,-232717
48.18,-232763
48.19,-232763
48.2,-232763
48.21,-232838
48.22,-232879
48.23,-232923
48.24,-232971
48.25,-233016
48.26,-233116
48.27,-233166
48.28,-233189
48.29,-233242
48.3,-233297
48.31,-233297
48.32,-233330
48.33,-233330
48.34,-233330
48.35,-233373
48.36,-233400
48.37,-233610
48.38,-233635
48.39,-233666
48.4,-233692
48.41,-233729
48.42,-233757
48.43,-233787
48.44,-233809
48.45,-233831
48.46,-233852
48.47,-233876
48.48,-233895
48.49,-233925
48.5,-233975
48.51,-234014
48.52,-234039
48.53,-234044
48.54,-234072
48.55,-234099
48.56,-234110
48.57,-234132
48.58,-234132
48.59,-234176
48.6,-234193
48.61,-234231
48.62,-234243
48.63,-234247
48.64,-234272
48.65,-234288
48.66,-234305
48.67,-234329
48.68,-234338
48.69,-234357
48.7,-234360
48.71,-234393
48.72,-234427
48.73,-234438
48.74,-234440
48.75,-234458
48.76,-234434
48.77,-234371
48.78,-234310
48.79,-234206
48.8,-234082
48.81,-234082
48.82,-234082
48.83,-233516
48.84,-233300
48.85,-233055
48.86,-232800
48.87,-232534
48.88,-232266
48.89,-232007
48.9,-231777
48.91,-231526
48.92,-231310
48.93,-231121
48.94,-230955
48.95,-230814
48.96,-230706
48.97,-230591
48.98,-230518
48.99,-230452
49,-230440
49.01,-230435
49.02,-230456
49.03,-230490
49.04,-230541
49.05,-230541
49.06,-230541
49.07,-230718
49.08,-230792
49.09,-230859
49.1,-230940
49.11,-231020
49.12,-231097
49.13,-231180
49.14,-231267
49.15,-231353
49.16,-231426
49.17,-231512
49.18,-231609
49.19,-231690
49.2,-231783
49.21,-231865
49.22,-231946
49.23,-232106
49.24,-232187
49.25,-232238
49.26,-232310
49.27,-232357
49.28,-232410
49.29,-232410
49.3,-232410
49.31,-232410
49.32,-232498
49.33,-232521
49.34,-232535
49.35,-232528
49.36,-232516
49.37,-232499
49.38,-232472
49.39,-232445
49.4,-232408
49.41,-232374
49.42,-232324
49.43,-232272
49.44,-232226
49.45,-232177
49.46,-232119
49.47,-232078
49.48,-231963
49.49,-231932
49.5,-231898
49.51,-231873
49.52,-231873
49.53,-231873
49.54,-231836
49.55,-231788
49.56,-231792
49.57,-231809
49.58,-231821
49.59,-231840
49.6,-231879
49.61,-231913
49.62,-231939
49.63,-231961
49.64,-232005
49.65,-232044
49.66,-232085
49.67,-232122
49.68,-232174
49.69,-232219
49.7,-232314
49.71,-232367
49.72,-232416
49.73,-232453
49.74,-232509
49.75,-232554
49.76,-232554
49.77,-232554
49.78,-232611
49.79,-232662
49.8,-232711
49.81,-232769
49.82,-232852
49.83,-232908
49.84,-232950
49.85,-233005
49.86,-233040
49.87,-233093
49.88,-233130
49.89,-233178
49.9,-233210
49.91,-233251
49.92,-233294
49.93,-233327
49.94,-233411
49.95,-233445
49.96,-233478
49.97,-233525
49.98,-233557
49.99,-233587
50,-233587
50.01,-233590
50.02,-233628
50.03,-233656
50.04,-233681
50.05,-233726
50.06,-233770
50.07,-233781
50.08,-233797
50.09,-233814
50.1,-233833
50.11,-233862
50.12,-233865
50.13,-233893
50.14,-233904
50.15,-233921
50.16,-233943
50.17,-233979
50.18,-234000
50.19,-234014
50.2,-234035
50.21,-234045
50.22,-234044
50.23,-234044
50.24,-234044
50.25,-234041
50.26,-234041
50.27,-234035
50.28,-233999
50.29,-233943
50.3,-233563
50.31,-233390
50.32,-233183
50.33,-232935
50.34,-232687
50.35,-232415
50.36,-232136
50.37,-231868
50.38,-231598
50.39,-231327
50.4,-231327
50.41,-231327
50.42,-231064
50.43,-230828
50.44,-230430
50.45,-230138
50.46,-230022
50.47,-229938
50.48,-229879
50.49,-229839
50.5,-229839
50.51,-229839
50.52,-229814
50.53,-229833
50.54,-229832
50.55,-229962
50.56,-230010
50.57,-230069
50.58,-230139
50.59,-230224
50.6,-230300
50.61,-230385
50.62,-230455
50.63,-230538
50.64,-230626
50.65,-230703
50.66,-230803
50.67,-230887
50.68,-231082
50.69,-231158
50.7,-231233
50.71,-231332
50.72,-231412
50.73,-231504
50.74,-231504
50.75,-231504
50.76,-231586
50.77,-231895
50.78,-231944
50.79,-231981
50.8,-232008
50.81,-232019
50.82,-232036
50.83,-232034
50.84,-232035
50.85,-232011
50.86,-231984
50.87,-231955
50.88,-231916
50.89,-231861
50.9,-231814
50.91,-231755
50.92,-231654
50.93,-231595
50.94,-231528
50.95,-231489
50.96,-231431
50.97,-231382
50.98,-231382
50.99,-231348
51,-231243
51.01,-231223
51.02,-231227
51.03,-231224
51.04,-231212
51.05,-231215
51.06,-231251
51.07,-231259
51.08,-231263
51.09,-231297
51.1,-231333
51.11,-231356
51.12,-231390
51.13,-231437
51.14,-231469
51.15,-231550
51.16,-231596
51.17,-231627
51.18,-231676
51.19,-231730
51.2,-231775
51.21,-231775
51.22,-231775
51.23,-231830
51.24,-231960
51.25,-232022
51.26,-232057
51.27,-232107
51.28,-232164
51.29,-232207
51.3,-232271
51.31,-232306
51.32,-232377
51.33,-232405
51.34,-232446
51.35,-232489
51.36,-232542
51.37,-232579
51.38,-232623
51.39,-232692
51.4,-232736
51.41,-232768
51.42,-232802
51.43,-232846
51.44,-232872
51.45,-232872
51.46,-232889
51.47,-232986
51.48,-233015
51.49,-233103
51.5,-233103
51.51,-233103
51.52,-233126
51.53,-233154
51.54,-233175
51.55,-233196
51.56,-233218
51.57,-233240
51.58,-233260
51.59,-233272
51.6,-233298
51.61,-233298
51.62,-233318
51.63,-233322
51.64,-233315
51.65,-233280
51.66,-233224
51.67,-233149
51.68,-233035
51.69,-232876
51.7,-232707
51.71,-232508
51.72,-231399
51.73,-231106
51.74,-230795
51.75,-230506
51.76,-230216
51.77,-229940
51.78,-229712
51.79,-229483
51.8,-229276
51.81,-229138
51.82,-228999
51.83,-228888
51.84,-228819
51.85,-228771
51.86,-228736
51.87,-228732
51.88,-228767
51.89,-228790
51.9,-228853
51.91,-228893
51.92,-228953
51.93,-229048
51.94,-229279
51.95,-229371
51.96,-229463
51.97,-229552
51.98,-229628
51.99,-229709
52,-229809
52.01,-229890
52.02,-229973
52.03,-230069
52.04,-230162
52.05,-230253
52.06,-230346
52.07,-230429
52.08,-230518
52.09,-230583
52.1,-230675
52.11,-230749
52.12,-230796
52.13,-230863
52.14,-230913
52.15,-230970
52.16,-230992
52.17,-231033
52.18,-231036
52.19,-231027
52.2,-230997
52.21,-230965
52.22,-230918
52.23,-230880
52.24,-230818
52.25,-230769
52.26,-230714
52.27,-230640
52.28,-230587
52.29,-230526
52.3,-230467
52.31,-230415
52.32,-230376
52.33,-230339
52.34,-230303
52.35,-230263
52.36,-230228
52.37,-230208
52.38,-230194
52.39,-230193
52.4,-230203
52.41,-230225
52.42,-230246
52.43,-230278
52.44,-230307
52.45,-230343
52.46,-230378
52.47,-230420
52.48,-230465
52.49,-230504
52.5,-230548
52.51,-230599
52.52,-230637
52.53,-230683
52.54,-230728
52.55,-230789
52.56,-230840
52.57,-230887
52.58,-230942
52.59,-230992
52.6,-231046
52.61,-231107
52.62,-231141
52.63,-231310
52.64,-231369
52.65,-231409
52.66,-231458
52.67,-231518
52.68,-231564
52.69,-231612
52.7,-231658
52.71,-231699
52.72,-231745
52.73,-231792
52.74,-231828
52.75,-231883
52.76,-231911
52.77,-231946
52.78,-231999
52.79,-232047
52.8,-232073
52.81,-232105
52.82,-232143
52.83,-232180
52.84,-232202
52.85,-232239
52.86,-232263
52.87,-232277
52.88,-232306
52.89,-232319
52.9,-232348
52.91,-232358
52.92,-232364
52.93,-232372
52.94,-232351
52.95,-232294
52.96,-232208
52.97,-232092
52.98,-231926
52.99,-231712
53,-231481
53.01,-231215
53.02,-230918
53.03,-230607
53.04,-230291
53.05,-229980
53.06,-229653
53.07,-229347
53.08,-229048
53.09,-228808
53.1,-228556
53.11,-228351
53.12,-228173
53.13,-228028
53.14,-227925
53.15,-227836
53.16,-227776
53.17,-227736
53.18,-227722
53.19,-227729
53.2,-227753
53.21,-227783
53.22,-227828
53.23,-227894
53.24,-227964
53.25,-228032
53.26,-228111
53.27,-228197
53.28,-228299
53.29,-228377
53.3,-228475
53.31,-229636
53.32,-228646
53.33,-228744
53.34,-228819
53.35,-229855
53.36,-229898
53.37,-229950
53.38,-230008
53.39,-230065
53.4,-230122
53.41,-230171
53.42,-230225
53.43,-230264
53.44,-230328
53.45,-230366
53.46,-230418
53.47,-230469
53.48,-230510
53.49,-230571
53.5,-230632
53.51,-230664
53.52,-230701
53.53,-230753
53.54,-230810
53.55,-230849
53.56,-230899
53.57,-230938
53.58,-230985
53.59,-231026
53.6,-231078
53.61,-231121
53.62,-231171
53.63,-231188
53.64,-231245
53.65,-231292
53.66,-231320
53.67,-231343
53.68,-231356
53.69,-231400
53.7,-231422
53.71,-231458
53.72,-231484
53.73,-231495
53.74,-231504
53.75,-231501
53.76,-231478
53.77,-231432
53.78,-231341
53.79,-231222
53.8,-231056
53.81,-230856
53.82,-230604
53.83,-230332
53.84,-230023
53.85,-229700
53.86,-229362
53.87,-228999
53.88,-228649
53.89,-228310
53.9,-227988
53.91,-227706
53.92,-227431
53.93,-227194
53.94,-226990
53.95,-226815
53.96,-226662
53.97,-226550
53.98,-226464
53.99,-226395
54,-226356
54.01,-226335
54.02,-226341
54.03,-226338
54.04,-226370
54.05,-226410
54.06,-226470
54.07,-226516
54.08,-226584
54.09,-226636
54.1,-226693
54.11,-226755
54.12,-226816
54.13,-226888
54.14,-226961
54.15,-227018
54.16,-227077
54.17,-227152
54.18,-227208
54.19,-227292
54.2,-227356
54.21,-227434
54.22,-227499
54.23,-227579
54.24,-227650
54.25,-227733
54.26,-227795
54.27,-227863
54.28,-227922
54.29,-227973
54.3,-228028
54.31,-228049
54.32,-228073
54.33,-228109
54.34,-228112
54.35,-228108
54.36,-228110
54.37,-228093
54.38,-228063
54.39,-228013
54.4,-227962
54.41,-227926
54.42,-227876
54.43,-227820
54.44,-227754
54.45,-227702
54.46,-227638
54.47,-227591
54.48,-227539
54.49,-227485
54.5,-227443
54.51,-227417
54.52,-227384
54.53,-227354
54.54,-227332
54.55,-227320
54.56,-227314
54.57,-227308
54.58,-227325
54.59,-227342
54.6,-227355
54.61,-227381
54.62,-227410
54.63,-227435
54.64,-227472
54.65,-227504
54.66,-227539
54.67,-227584
54.68,-227631
54.69,-227670
54.7,-227717
54.71,-227783
54.72,-227834
54.73,-227890
54.74,-227946
54.75,-228003
54.76,-228039
54.77,-228096
54.78,-228139
54.79,-228185
54.8,-228245
54.81,-228317
54.82,-228353
54.83,-228414
54.84,-228466
54.85,-228507
54.86,-228559
54.87,-228610
54.88,-228659
54.89,-228701
54.9,-228758
54.91,-228785
54.92,-228839
54.93,-228869
54.94,-228901
54.95,-228932
54.96,-228964
54.97,-228996
54.98,-229032
54.99,-229066
55,-229098
55.01,-229113
55.02,-229137
55.03,-229151
55.04,-229177
55.05,-229201
55.06,-229223
55.07,-229235
55.08,-229257
55.09,-229271
55.1,-229281
55.11,-229285
55.12,-229292
55.13,-229315
55.14,-229306
55.15,-229323
55.16,-229286
55.17,-229266
55.18,-229210
55.19,-229122
55.2,-229000
55.21,-228828
55.22,-228613
55.23,-228386
55.24,-228108
55.25,-227809
55.26,-227477
55.27,-227135
55.28,-226799
55.29,-226462
55.3,-226130
55.31,-225820
55.32,-225525
55.33,-225264
55.34,-225044
55.35,-224865
55.36,-224698
55.37,-224575
55.38,-224477
55.39,-224402
55.4,-224362
55.41,-224346
55.42,-224350
55.43,-224384
55.44,-224416
55.45,-224468
55.46,-224522
55.47,-224593
55.48,-224663
55.49,-224742
55.5,-224800
55.51,-224890
55.52,-224972
55.53,-225038
55.54,-225112
55.55,-225200
55.56,-225274
55.57,-225349
55.58,-225417
55.59,-225502
55.6,-225575
55.61,-225664
55.62,-225740
55.63,-225817
55.64,-225884
55.65,-225951
55.66,-226014
55.67,-226082
55.68,-226160
55.69,-226235
55.7,-226290
55.71,-226332
55.72,-226364
55.73,-226387
55.74,-226402
55.75,-226402
55.76,-226384
55.77,-226368
55.78,-226336
55.79,-226304
55.8,-226309
55.81,-226265
55.82,-226204
55.83,-226139
55.84,-226085
55.85,-226032
55.86,-225992
55.87,-225933
55.88,-225874
55.89,-225834
55.9,-225779
55.91,-225748
55.92,-225716
55.93,-225688
55.94,-225666
55.95,-225655
55.96,-225640
55.97,-225623
55.98,-225629
55.99,-225639
56,-225662
56.01,-225686
56.02,-225715
56.03,-225741
56.04,-225784
56.05,-225826
56.06,-225862
56.07,-225912
56.08,-225943
56.09,-226004
56.1,-226056
56.11,-226106
56.12,-226165
56.13,-226210
56.14,-226282
56.15,-226331
56.16,-226379
56.17,-226439
56.18,-226484
56.19,-226540
56.2,-226590
56.21,-226646
56.22,-226692
56.23,-226751
56.24,-226796
56.25,-226846
56.26,-226884
56.27,-226935
56.28,-226991
56.29,-227030
56.3,-227059
56.31,-227113
56.32,-227148
56.33,-227186
56.34,-227229
56.35,-227254
56.36,-227282
56.37,-227323
56.38,-227365
56.39,-227376
56.4,-227404
56.41,-227421
56.42,-227438
56.43,-227459
56.44,-227486
56.45,-227492
56.46,-227511
56.47,-227539
56.48,-227547
56.49,-227569
56.5,-227581
56.51,-227599
56.52,-227629
56.53,-227634
56.54,-227647
56.55,-227659
56.56,-227659
56.57,-227689
56.58,-227703
56.59,-227710
56.6,-227734
56.61,-227730
56.62,-227731
56.63,-227734
56.64,-227715
56.65,-227690
56.66,-227622
56.67,-227544
56.68,-227415
56.69,-227222
56.7,-227009
56.71,-226755
56.72,-226470
56.73,-226151
56.74,-225817
56.75,-225479
56.76,-225144
56.77,-224823
56.78,-224505
56.79,-224202
56.8,-223947
56.81,-223707
56.82,-223495
56.83,-223311
56.84,-223165
56.85,-223064
56.86,-222987
56.87,-222907
56.88,-222885
56.89,-222875
56.9,-222864
56.91,-222890
56.92,-222909
56.93,-222960
56.94,-223004
56.95,-223054
56.96,-223109
56.97,-223164
56.98,-223223
56.99,-223293
57,-223351
57.01,-223414
57.02,-223464
57.03,-223523
57.04,-223581
57.05,-223630
57.06,-223686
57.07,-223732
57.08,-223782
57.09,-223840
57.1,-223893
57.11,-223938
57.12,-227659
57.13,-227689
57.14,-227703
57.15,-227710
57.16,-227734
57.17,-227730
57.18,-227731
57.19,-227734
57.2,-227715
57.21,-227690
57.22,-227622
57.23,-227544
57.24,-227415
57.25,-227222
57.26,-227009
57.27,-226755
57.28,-226470
57.29,-226151
57.3,-225817
57.31,-225479
57.32,-225144
57.33,-224823
57.34,-224505
57.35,-224202
57.36,-223947
57.37,-223707
57.38,-223495
57.39,-223311
57.4,-223165
57.41,-223064
57.42,-222987
57.43,-222907
57.44,-222885
57.45,-222875
57.46,-222864
57.47,-222890
57.48,-222909
57.49,-222960
57.5,-223004
57.51,-223054
57.52,-223109
57.53,-223164
57.54,-223223
57.55,-223293
57.56,-223351
57.57,-223414
57.58,-223464
57.59,-223523
57.6,-223581
57.61,-223630
57.62,-223686
57.63,-223732
57.64,-223782
57.65,-223840
57.66,-223893
57.67,-223938
57.68,-223985
57.69,-224023
57.7,-224066
57.71,-224103
57.72,-224118
57.73,-224158
57.74,-224163
57.75,-223266
57.76,-223312
57.77,-223321
57.78,-223351
57.79,-223370
57.8,-223403
57.81,-223411
57.82,-223452
57.83,-223463
57.84,-223486
57.85,-223513
57.86,-223509
57.87,-223523
57.88,-223529
57.89,-223538
57.9,-223544
57.91,-223534
57.92,-223538
57.93,-223523
57.94,-223517
57.95,-223514
57.96,-223523
57.97,-223512
57.98,-223513
57.99,-223495
58,-223484
58.01,-223472
58.02,-223473
58.03,-223475
58.04,-223476
58.05,-223465
58.06,-223463
58.07,-223456
58.08,-223475
58.09,-223486
58.1,-223507
58.11,-223500
58.12,-223527
58.13,-223526
58.14,-223546
58.15,-223581
58.16,-223589
58.17,-223610
58.18,-223630
58.19,-223637
58.2,-223645
58.21,-223653
58.22,-223616
58.23,-223546
58.24,-223429
58.25,-223266
58.26,-223071
58.27,-222851
58.28,-222591
58.29,-222305
58.3,-221994
58.31,-221669
58.32,-221372
58.33,-221053
58.34,-220759
58.35,-220483
58.36,-220238
58.37,-220044
58.38,-219836
58.39,-219678
58.4,-219535
58.41,-219428
58.42,-219428
58.43,-219428
58.44,-219428
58.45,-219360
58.46,-219305
58.47,-219272
58.48,-219268
58.49,-219283
58.5,-219315
58.51,-219335
58.52,-219386
58.53,-219452
58.54,-219515
58.55,-219585
58.56,-219660
58.57,-219738
58.58,-219813
58.59,-219887
58.6,-219974
58.61,-220053
58.62,-220270
58.63,-220344
58.64,-220418
58.65,-220502
58.66,-220586
58.67,-220676
58.68,-220751
58.69,-220833
58.7,-220911
58.71,-220973
58.72,-221052
58.73,-221119
58.74,-221180
58.75,-221231
58.76,-221272
58.77,-221301
58.78,-221330
58.79,-221336
58.8,-221338
58.81,-221333
58.82,-221320
58.83,-221291
58.84,-221281
58.85,-221229
58.86,-221201
58.87,-221130
58.88,-221088
58.89,-221043
58.9,-220974
58.91,-220930
58.92,-220891
58.93,-220829
58.94,-220815
58.95,-220777
58.96,-220762
58.97,-220728
58.98,-220729
58.99,-220731
59,-220737
59.01,-220759
59.02,-220793
59.03,-220815
59.04,-220851
59.05,-220892
59.06,-220935
59.07,-220981
59.08,-221031
59.09,-221082
59.1,-221132
59.11,-221179
59.12,-221231
59.13,-221291
59.14,-221344
59.15,-221397
59.16,-221458
59.17,-221513
59.18,-221584
59.19,-221633
59.2,-221699
59.21,-221753
59.22,-221803
59.23,-221853
59.24,-221920
59.25,-221985
59.26,-222037
59.27,-222092
59.28,-222148
59.29,-222200
59.3,-222260
59.31,-222302
59.32,-222369
59.33,-222434
59.34,-222484
59.35,-222520
59.36,-222587
59.37,-222631
59.38,-222667
59.39,-222706
59.4,-222755
59.41,-222799
59.42,-222815
59.43,-222862
59.44,-222888
59.45,-222908
59.46,-222950
59.47,-222964
59.48,-222988
59.49,-223012
59.5,-223030
59.51,-223041
59.52,-223060
59.53,-223071
59.54,-223082
59.55,-223084
59.56,-223093
59.57,-223107
59.58,-223116
59.59,-223126
59.6,-223145
59.61,-223161
59.62,-223159
59.63,-223192
59.64,-223209
59.65,-223224
59.66,-223228
59.67,-223262
59.68,-223269
59.69,-223277
59.7,-223294
59.71,-223311
59.72,-223323
59.73,-223341
59.74,-223361
59.75,-223361
59.76,-223394
59.77,-223425
59.78,-223450
59.79,-223476
59.8,-223523
59.81,-223549
59.82,-223571
59.83,-223604
59.84,-223601
59.85,-223583
59.86,-223538
59.87,-223436
59.88,-223299
59.89,-223131
59.9,-222915
59.91,-222662
59.92,-222394
59.93,-222088
59.94,-221088
59.95,-221021
59.96,-220966
59.97,-220864
59.98,-220873
59.99,-220831
60,-220796
60.01,-220766
60.02,-220743
60.03,-220713
60.04,-220701
60.05,-220696
60.06,-220689
60.07,-220695
60.08,-220688
60.09,-220697
60.1,-220723
60.11,-220747
60.12,-220781
60.13,-220803
60.14,-220852
60.15,-220892
60.16,-220946
60.17,-220999
60.18,-221072
60.19,-221119
60.2,-221186
60.21,-221257
60.22,-221317
60.23,-221384
60.24,-221436
60.25,-221488
60.26,-221547
60.27,-221599
60.28,-221657
60.29,-221713
60.3,-221774
60.31,-221820
60.32,-221878
60.33,-221944
60.34,-221985
60.35,-222048
60.36,-222103
60.37,-222162
60.38,-222210
60.39,-222276
60.4,-222325
60.41,-222361
60.42,-222412
60.43,-222457
60.44,-222499
60.45,-222521
60.46,-222568
60.47,-222594
60.48,-222636
60.49,-222672
60.5,-222694
60.51,-222714
60.52,-222742
60.53,-222774
60.54,-222804
60.55,-222842
60.56,-222864
60.57,-222888
60.58,-222913
60.59,-222915
60.6,-222928
60.61,-222944
60.62,-222952
60.63,-222962
60.64,-222971
60.65,-222982
60.66,-222979
60.67,-222996
60.68,-223003
60.69,-223003
60.7,-223014
60.71,-223025
60.72,-223025
60.73,-223025
60.74,-223025
60.75,-223058
60.76,-223068
60.77,-223096
60.78,-223114
60.79,-223136
60.8,-223153
60.81,-223175
60.82,-223200
60.83,-223213
60.84,-223227
60.85,-223268
60.86,-223281
60.87,-223307
60.88,-223293
60.89,-223305
60.9,-223286
60.91,-223244
60.92,-223169
60.93,-223040
60.94,-222896
60.95,-222706
60.96,-222470
60.97,-222201
60.98,-221923
60.99,-221644
61,-221335
61.01,-221051
61.02,-220762
61.03,-220473
61.04,-220214
61.05,-219991
61.06,-219762
61.07,-219583
61.08,-219447
61.09,-219302
61.1,-219215
61.11,-219149
61.12,-219113
61.13,-219094
61.14,-219110
61.15,-219115
61.16,-219165
61.17,-219218
61.18,-219263
61.19,-219333
61.2,-219415
61.21,-219480
61.22,-219542
61.23,-219618
61.24,-219690
61.25,-219770
61.26,-219853
61.27,-219924
61.28,-220015
61.29,-220095
61.3,-220188
61.31,-220269
61.32,-220357
61.33,-220445
61.34,-220563
61.35,-220678
61.36,-220772
61.37,-220864
61.38,-220934
61.39,-221022
61.4,-221088
61.41,-221146
61.42,-221216
61.43,-221267
61.44,-221290
61.45,-221339
61.46,-221384
61.47,-221422
61.48,-221464
61.49,-221509
61.5,-221535
61.51,-221556
61.52,-221575
61.53,-221593
61.54,-221600
61.55,-221598
61.56,-221598
61.57,-221589
61.58,-221569
61.59,-221572
61.6,-221554
61.61,-221569
61.62,-221553
61.63,-221555
61.64,-221568
61.65,-221591
61.66,-221618
61.67,-221628
61.68,-221647
61.69,-221678
61.7,-221711
61.71,-221746
61.72,-221788
61.73,-221832
61.74,-221887
61.75,-221911
61.76,-221959
61.77,-221988
61.78,-222039
61.79,-222067
61.8,-222118
61.81,-222150
61.82,-222170
61.83,-222199
61.84,-222199
61.85,-222220
61.86,-222239
61.87,-222258
61.88,-222243
61.89,-222247
61.9,-222248
61.91,-222245
61.92,-222239
61.93,-222235
61.94,-222216
61.95,-222203
61.96,-222191
61.97,-222204
61.98,-222198
61.99,-222214
62,-222212
62.01,-222246
62.02,-222259
62.03,-222274
62.04,-222309
62.05,-222352
62.06,-222378
62.07,-222410
62.08,-222442
62.09,-222474
62.1,-222524
62.11,-222553
62.12,-222596
62.13,-222628
62.14,-222666
62.15,-222703
62.16,-222733
62.17,-222782
62.18,-222822
62.19,-222871
62.2,-222920
62.21,-222968
62.22,-223007
62.23,-223058
62.24,-223093
62.25,-223140
62.26,-223176
62.27,-223214
62.28,-223231
62.29,-223247
62.3,-223269
62.31,-223295
62.32,-223318
62.33,-223326
62.34,-223347
62.35,-223360
62.36,-223372
62.37,-223391
62.38,-223392
62.39,-223397
62.4,-223409
62.41,-223426
62.42,-223438
62.43,-223447
62.44,-223447
62.45,-223447
62.46,-223464
62.47,-223481
62.48,-223484
62.49,-223497
62.5,-223508
62.51,-223528
62.52,-223518
62.53,-223523
62.54,-223501
62.55,-223471
62.56,-223414
62.57,-223414
62.58,-223306
62.59,-223165
62.6,-222973
62.61,-222768
62.62,-222508
62.63,-222241
62.64,-221963
62.65,-221682
62.66,-221384
62.67,-221097
62.68,-220820
62.69,-220553
62.7,-220310
62.71,-220077
62.72,-219868
62.73,-219699
62.74,-219565
62.75,-219452
62.76,-219354
62.77,-219297
62.78,-219271
62.79,-219243
62.8,-219236
62.81,-219256
62.82,-219295
62.83,-219346
62.84,-219413
62.85,-219488
62.86,-219564
62.87,-219643
62.88,-219730
62.89,-219809
62.9,-219903
62.91,-219978
62.92,-220075
62.93,-220155
62.94,-220240
62.95,-220333
62.96,-220419
62.97,-220505
62.98,-220611
62.99,-220690
63,-220788
63.01,-220895
63.02,-220989
63.03,-221084
63.04,-221182
63.05,-221262
63.06,-221359
63.07,-221359
63.08,-221426
63.09,-221497
63.1,-221553
63.11,-221584
63.12,-221638
63.13,-221663
63.14,-221713
63.15,-221715
63.16,-221732
63.17,-221724
63.18,-221712
63.19,-221682
63.2,-221649
63.21,-221610
63.22,-221552
63.23,-221492
63.24,-221428
63.25,-221380
63.26,-221323
63.27,-221267
63.28,-221224
63.29,-221178
63.3,-221142
63.31,-221129
63.32,-221087
63.33,-221092
63.34,-221095
63.35,-221103
63.36,-221139
63.37,-221176
63.38,-221201
63.39,-221239
63.4,-221287
63.41,-221354
63.42,-221421
63.43,-221487
63.44,-221559
63.45,-221648
63.46,-221711
63.47,-221798
63.48,-221798
63.49,-221798
63.5,-221889
63.51,-221958
63.52,-222045
63.53,-222119
63.54,-222176
63.55,-222252
63.56,-222315
63.57,-222371
63.58,-222410
63.59,-222438
63.6,-222468
63.61,-222500
63.62,-222537
63.63,-222547
63.64,-222566
63.65,-222571
63.66,-222579
63.67,-222602
63.68,-222608
63.69,-222604
63.7,-222602
63.71,-222595
63.72,-222584
63.73,-222592
63.74,-222589
63.75,-222597
63.76,-222594
63.77,-222620
63.78,-222639
63.79,-222646
63.8,-222673
63.81,-222673
63.82,-222691
63.83,-222718
63.84,-222765
63.85,-222791
63.86,-222830
63.87,-222866
63.88,-222910
63.89,-222929
63.9,-222957
63.91,-222980
63.92,-223000
63.93,-223019
63.94,-223023
63.95,-223062
63.96,-223060
63.97,-223088
63.98,-223091
63.99,-223107
64,-223116
64.01,-223141
64.02,-223143
64.03,-223154
64.04,-223163
64.05,-223174
64.06,-223188
64.07,-223200
64.08,-223215
64.09,-223227
64.1,-223232
64.11,-223237
64.12,-223256
64.13,-223270
64.14,-223272
64.15,-223293
64.16,-223292
64.17,-223282
64.18,-223257
64.19,-223200
64.2,-223071
64.21,-222922
64.22,-222728
64.23,-222500
64.24,-222266
64.25,-221992
64.26,-221704
64.27,-221401
64.28,-221401
64.29,-221102
64.3,-220812
64.31,-220512
64.32,-220248
64.33,-220002
64.34,-219784
64.35,-219590
64.36,-219415
64.37,-219273
64.38,-219163
64.39,-219071
64.4,-219007
64.41,-218982
64.42,-218966
64.43,-218950
64.44,-218965
64.45,-218987
64.46,-219002
64.47,-219042
64.48,-219094
64.49,-219148
64.5,-219217
64.51,-219299
64.52,-219299
64.53,-219394
64.54,-219394
64.55,-219498
64.56,-219611
64.57,-219693
64.58,-219787
64.59,-219907
64.6,-220005
64.61,-220107
64.62,-220210
64.63,-220310
64.64,-220421
64.65,-220534
64.66,-220616
64.67,-220722
64.68,-220809
64.69,-220899
64.7,-220974
64.71,-221067
64.72,-221135
64.73,-221192
64.74,-221254
64.75,-221310
64.76,-221350
64.77,-221367
64.78,-221402
64.79,-221417
64.8,-221418
64.81,-221418
64.82,-221395
64.83,-221372
64.84,-221349
64.85,-221295
64.86,-221243
64.87,-221177
64.88,-221125
64.89,-221065
64.9,-221007
64.91,-220944
64.92,-220906
64.93,-220869
64.94,-220838
64.95,-220809
64.96,-220790
64.97,-220772
64.98,-220768
64.99,-220775
65,-220778
65.01,-220778
65.02,-220787
65.03,-220824
65.04,-220829
65.05,-220862
65.06,-220873
65.07,-220908
65.08,-220954
65.09,-220980
65.1,-221020
65.11,-221064
65.12,-221093
65.13,-221152
65.14,-221212
65.15,-221273
65.16,-221332
65.17,-221397
65.18,-221443
65.19,-221507
65.2,-221558
65.21,-221624
65.22,-221681
65.23,-221745
65.24,-221815
65.25,-221815
65.26,-221865
65.27,-221927
65.28,-221979
65.29,-222019
65.3,-222070
65.31,-222123
65.32,-222180
65.33,-222227
65.34,-222273
65.35,-222337
65.36,-222382
65.37,-222436
65.38,-222490
65.39,-222535
65.4,-222589
65.41,-222645
65.42,-222697
65.43,-222750
65.44,-222793
65.45,-222837
65.46,-222864
65.47,-222908
65.48,-222932
65.49,-222970
65.5,-223000
65.51,-223029
65.52,-223044
65.53,-223074
65.54,-223094
65.55,-223094
65.56,-223094
65.57,-223094
65.58,-223113
65.59,-223147
65.6,-223163
65.61,-223200
65.62,-223218
65.63,-223251
65.64,-223286
65.65,-223305
65.66,-223337
65.67,-223368
65.68,-223390
65.69,-223409
65.7,-223432
65.71,-223445
65.72,-223459
65.73,-223483
65.74,-223498
65.75,-223500
65.76,-223517
65.77,-223524
65.78,-223539
65.79,-223535
65.8,-223531
65.81,-223523
65.82,-223473
65.83,-223394
65.84,-223260
65.85,-223103
65.86,-222923
65.87,-222695
65.88,-222432
65.89,-222157
65.9,-221864
65.91,-221555
65.92,-221263
65.93,-220970
65.94,-220689
65.95,-220689
65.96,-220425
65.97,-220201
65.98,-219989
65.99,-219798
66,-219652
66.01,-219508
66.02,-219404
66.03,-219321
66.04,-219258
66.05,-219229
66.06,-219217
66.07,-219218
66.08,-219224
66.09,-219265
66.1,-219315
66.11,-219371
66.12,-219426
66.13,-219490
66.14,-219586
66.15,-219673
66.16,-219737
66.17,-219835
66.18,-219926
66.19,-219926
66.2,-220023
66.21,-220112
66.22,-220204
66.23,-220287
66.24,-220390
66.25,-220484
66.26,-220598
66.27,-220720
66.28,-220842
66.29,-220965
66.3,-221040
66.31,-221124
66.32,-221185
66.33,-221248
66.34,-221335
66.35,-221431
66.36,-221503
66.37,-221574
66.38,-221619
66.39,-221657
66.4,-221694
66.41,-221705
66.42,-221707
66.43,-221691
66.44,-221674
66.45,-221663
66.46,-221660
66.47,-221641
66.48,-221612
66.49,-221576
66.5,-221517
66.51,-221453
66.52,-221403
66.53,-221348
66.54,-221290
66.55,-221231
66.56,-221181
66.57,-221140
66.58,-221095
66.59,-221062
66.6,-221062
66.61,-221023
66.62,-220996
66.63,-220977
66.64,-220978
66.65,-220972
66.66,-220997
66.67,-220999
66.68,-221017
66.69,-221027
66.7,-221058
66.71,-221111
66.72,-221159
66.73,-221190
66.74,-221235
66.75,-221285
66.76,-221332
66.77,-221376
66.78,-221428
66.79,-221476
66.8,-221539
66.81,-221595
66.82,-221657
66.83,-221731
66.84,-221786
66.85,-221827
66.86,-221904
66.87,-221954
66.88,-222015
66.89,-222076
66.9,-222139
66.91,-222192
66.92,-222253
66.93,-222293
66.94,-222365
66.95,-222397
66.96,-222443
66.97,-222509
66.98,-222560
66.99,-222603
67,-222644
67.01,-222694
67.02,-222747
67.03,-222793
67.04,-222840
67.05,-222880
67.06,-222923
67.07,-222952
67.08,-222988
67.09,-223031
67.1,-223054
67.11,-223098
67.12,-223125
67.13,-223153
67.14,-223176
67.15,-223200
67.16,-223208
67.17,-223242
67.18,-223259
67.19,-223272
67.2,-223295
67.21,-223305
67.22,-223330
67.23,-223358
67.24,-223382
67.25,-223406
67.26,-223421
67.27,-223447
67.28,-223468
67.29,-223490
67.3,-223498
67.31,-223470
67.32,-223434
67.33,-223364
67.34,-223260
67.35,-223093
67.36,-222912
67.37,-222690
67.38,-222444
67.39,-222172
67.4,-221876
67.41,-221579
67.42,-221266
67.43,-220982
67.44,-220694
67.45,-220418
67.46,-220200
67.47,-219971
67.48,-219793
67.49,-219625
67.5,-219492
67.51,-219384
67.52,-219289
67.53,-219233
67.54,-219169
67.55,-219169
67.56,-219155
67.57,-219172
67.58,-219168
67.59,-219220
67.6,-219234
67.61,-219285
67.62,-219338
67.63,-219382
67.64,-219448
67.65,-219530
67.66,-219598
67.67,-219680
67.68,-219776
67.69,-219863
67.7,-219965
67.71,-220063
67.72,-220159
67.73,-220249
67.74,-220336
67.75,-220446
67.76,-220543
67.77,-220645
67.78,-220740
67.79,-220816
67.8,-220911
67.81,-220966
67.82,-221065
67.83,-221139
67.84,-221207
67.85,-221278
67.86,-221348
67.87,-221402
67.88,-221452
67.89,-221486
67.9,-221503
67.91,-221531
67.92,-221533
67.93,-221528
67.94,-221515
67.95,-221493
67.96,-221453
67.97,-221431
67.98,-221367
67.99,-221333
68,-221260
68.01,-221193
68.02,-221144
68.03,-221100
68.04,-221049
68.05,-221002
68.06,-220966
68.07,-220922
68.08,-220890
68.09,-220878
68.1,-220854
68.11,-220844
68.12,-220850
68.13,-220861
68.14,-220856
68.15,-220874
68.16,-220891
68.17,-220912
68.18,-220919
68.19,-220972
68.2,-220996
68.21,-221036
68.22,-221077
68.23,-221111
68.24,-221154
68.25,-221201
68.26,-221269
68.27,-221317
68.28,-221367
68.29,-221418
68.3,-221473
68.31,-221529
68.32,-221588
68.33,-221625
68.34,-221695
68.35,-221747
68.36,-221817
68.37,-221869
68.38,-221923
68.39,-221974
68.4,-222025
68.41,-222066
68.42,-222095
68.43,-222137
68.44,-222174
68.45,-222228
68.46,-222242
68.47,-218465
68.48,-218487
68.49,-218534
68.5,-218590
68.51,-218658
68.52,-218731
68.53,-218797
68.54,-218870
68.55,-218944
68.56,-219047
68.57,-219131
68.58,-219206
68.59,-219288
68.6,-219356
68.61,-219431
68.62,-219499
68.63,-219577
68.64,-219661
68.65,-219735
68.66,-219807
68.67,-219904
68.68,-219981
68.69,-220057
68.7,-220143
68.71,-220209
68.72,-220278
68.73,-220325
68.74,-220378
68.75,-220416
68.76,-220448
68.77,-220452
68.78,-220462
68.79,-220457
68.8,-220430
68.81,-220392
68.82,-220353
68.83,-220312
68.84,-220249
68.85,-220206
68.86,-220147
68.87,-220088
68.88,-220024
68.89,-219981
68.9,-219913
68.91,-219872
68.92,-219824
68.93,-219780
68.94,-219735
68.95,-219700
68.96,-219679
68.97,-219655
68.98,-219630
68.99,-219624
69,-219617
69.01,-219602
69.02,-219620
69.03,-219635
69.04,-219654
69.05,-219689
69.06,-219719
69.07,-219783
69.08,-219813
69.09,-219849
69.1,-219899
69.11,-219943
69.12,-219995
69.13,-220072
69.14,-220128
69.15,-220173
69.16,-220218
69.17,-220272
69.18,-220313
69.19,-220355
69.2,-220404
69.21,-220464
69.22,-220508
69.23,-220555
69.24,-220627
69.25,-220662
69.26,-220716
69.27,-220769
69.28,-220832
69.29,-220873
69.3,-220953
69.31,-221008
69.32,-221050
69.33,-221101
69.34,-221142
69.35,-221180
69.36,-221224
69.37,-221248
69.38,-221248
69.39,-221248
69.4,-221283
69.41,-221321
69.42,-221334
69.43,-221361
69.44,-221391
69.45,-221401
69.46,-221421
69.47,-221446
69.48,-221472
69.49,-221513
69.5,-221541
69.51,-221555
69.52,-221585
69.53,-221599
69.54,-221608
69.55,-221628
69.56,-221621
69.57,-221632
69.58,-221635
69.59,-221633
69.6,-221654
69.61,-221691
69.62,-221713
69.63,-221718
69.64,-221717
69.65,-221712
69.66,-221699
69.67,-221667
69.68,-221598
69.69,-221493
69.7,-221344
69.71,-221151
69.72,-220919
69.73,-220637
69.74,-220344
69.75,-220047
69.76,-219730
69.77,-219422
69.78,-219093
69.79,-218776
69.8,-218492
69.81,-218226
69.82,-217988
69.83,-217766
69.84,-217549
69.85,-217368
69.86,-217212
69.87,-217087
69.88,-216997
69.89,-216941
69.9,-216902
69.91,-216890
69.92,-216902
69.93,-216914
69.94,-216953
69.95,-217006
69.96,-217082
69.97,-217137
69.98,-217211
69.99,-217297
70,-217386
70.01,-217466
70.02,-217555
70.03,-217672
70.04,-217765
70.05,-217869
70.06,-217974
70.07,-218057
70.08,-218150
70.09,-218249
70.1,-218352
70.11,-218451
70.12,-218539
70.13,-218608
70.14,-218711
70.15,-218801
70.16,-218890
70.17,-218955
70.18,-218995
70.19,-219020
70.2,-219054
70.21,-219049
70.22,-219081
70.23,-219082
70.24,-219081
70.25,-219084
70.26,-219055
70.27,-219020
70.28,-218982
70.29,-218915
70.3,-218877
70.31,-218819
70.32,-218764
70.33,-218696
70.34,-218627
70.35,-218553
70.36,-218492
70.37,-218444
70.38,-218402
70.39,-218352
70.4,-218315
70.41,-218281
70.42,-218249
70.43,-218236
70.44,-218246
70.45,-218234
70.46,-218247
70.47,-218247
70.48,-218269
70.49,-218326
70.5,-218368
70.51,-218373
70.52,-218368
70.53,-218369
70.54,-218375
70.55,-218409
70.56,-218431
70.57,-218506
70.58,-218556
70.59,-218592
70.6,-218638
70.61,-218677
70.62,-218720
70.63,-218791
70.64,-218834
70.65,-218865
70.66,-218906
70.67,-218951
70.68,-218985
70.69,-219033
70.7,-219099
70.71,-219161
70.72,-219205
70.73,-219253
70.74,-219288
70.75,-219303
70.76,-219333
70.77,-219380
70.78,-219442
70.79,-219512
70.8,-219549
70.81,-219608
70.82,-219629
70.83,-219671
70.84,-219708
70.85,-219750
70.86,-219787
70.87,-219824
70.88,-219857
70.89,-219904
70.9,-219947
70.91,-219968
70.92,-220009
70.93,-220060
70.94,-220092
70.95,-220128
70.96,-220172
70.97,-220211
70.98,-220265
70.99,-220302
71,-220333
71.01,-220366
71.02,-220404
71.03,-220434
71.04,-220471
71.05,-220519
71.06,-220559
71.07,-220544
71.08,-220548
71.09,-220545
71.1,-220544
71.11,-220551
71.12,-220560
71.13,-220568
71.14,-220525
71.15,-220483
71.16,-220414
71.17,-220297
71.18,-220158
71.19,-219995
71.2,-219784
71.21,-219558
71.22,-219310
71.23,-219039
71.24,-218759
71.25,-218494
71.26,-218237
71.27,-217974
71.28,-217720
71.29,-217465
71.3,-217228
71.31,-217025
71.32,-216868
71.33,-216729
71.34,-216620
71.35,-216543
71.36,-216477
71.37,-216460
71.38,-216476
71.39,-216523
71.4,-216559
71.41,-216631
71.42,-216695
71.43,-216788
71.44,-216884
71.45,-217001
71.46,-217096
71.47,-217194
71.48,-217311
71.49,-217402
71.5,-217502
71.51,-217611
71.52,-217705
71.53,-217794
71.54,-217883
71.55,-217962
71.56,-218068
71.57,-218177
71.58,-218287
71.59,-218406
71.6,-218520
71.61,-218622
71.62,-218712
71.63,-218798
71.64,-218891
71.65,-218964
71.66,-219070
71.67,-219127
71.68,-219171
71.69,-219213
71.7,-219239
71.71,-219262
71.72,-219251
71.73,-219242
71.74,-219223
71.75,-219196
71.76,-219169
71.77,-219144
71.78,-219101
71.79,-219066
71.8,-219026
71.81,-218985
71.82,-218933
71.83,-218889
71.84,-218847
71.85,-218807
71.86,-218773
71.87,-218743
71.88,-218699
71.89,-218684
71.9,-218666
71.91,-218642
71.92,-218609
71.93,-218599
71.94,-218560
71.95,-218538
71.96,-218540
71.97,-218564
71.98,-218577
71.99,-218611
72,-218623
72.01,-218662
72.02,-218704
72.03,-218752
72.04,-218811
72.05,-218850
72.06,-218912
72.07,-218954
72.08,-219010
72.09,-219067
72.1,-219123
72.11,-219153
72.12,-219193
72.13,-219234
72.14,-219303
72.15,-219353
72.16,-219391
72.17,-219447
72.18,-219498
72.19,-219571
72.2,-219617
72.21,-219667
72.22,-219748
72.23,-219794
72.24,-219851
72.25,-219917
72.26,-219985
72.27,-220034
72.28,-220087
72.29,-220125
72.3,-220175
72.31,-220208
72.32,-220224
72.33,-220262
72.34,-220309
72.35,-220347
72.36,-220379
72.37,-220415
72.38,-220460
72.39,-220500
72.4,-220538
72.41,-220582
72.42,-220603
72.43,-220650
72.44,-220705
72.45,-220738
72.46,-220777
72.47,-220795
72.48,-220850
72.49,-220875
72.5,-220905
72.51,-220920
72.52,-220929
72.53,-220931
72.54,-220952
72.55,-220978
72.56,-220986
72.57,-221001
72.58,-221006
72.59,-220988
72.6,-220932
72.61,-220870
72.62,-220766
72.63,-220615
72.64,-220440
72.65,-220222
72.66,-219962
72.67,-219682
72.68,-219396
72.69,-219093
72.7,-218791
72.71,-218479
72.72,-218200
72.73,-217918
72.74,-217667
72.75,-217438
72.76,-217250
72.77,-217093
72.78,-216941
72.79,-216805
72.8,-216691
72.81,-216606
72.82,-216554
72.83,-216546
72.84,-216549
72.85,-216574
72.86,-216581
72.87,-216616
72.88,-216665
72.89,-216723
72.9,-216808
72.91,-216896
72.92,-216964
72.93,-217057
72.94,-217146
72.95,-217242
72.96,-217349
72.97,-217466
72.98,-217581
72.99,-217697
73,-217811
73.01,-217951
73.02,-218079
73.03,-218220
73.04,-218348
73.05,-218447
73.06,-218538
73.07,-218597
73.08,-218670
73.09,-218745
73.1,-218821
73.11,-218893
73.12,-218960
73.13,-219018
73.14,-219060
73.15,-219110
73.16,-219150
73.17,-219192
73.18,-219209
73.19,-219236
73.2,-219231
73.21,-219233
73.22,-219218
73.23,-219190
73.24,-219155
73.25,-219109
73.26,-219068
73.27,-219027
73.28,-218968
73.29,-218928
73.3,-218867
73.31,-218825
73.32,-218787
73.33,-218768
73.34,-218726
73.35,-218699
73.36,-218683
73.37,-218666
73.38,-218663
73.39,-218680
73.4,-218676
73.41,-218707
73.42,-218730
73.43,-218757
73.44,-218746
73.45,-218738
73.46,-218720
73.47,-218725
73.48,-218739
73.49,-218769
73.5,-218794
73.51,-218825
73.52,-218848
73.53,-218891
73.54,-218964
73.55,-219000
73.56,-219079
73.57,-219132
73.58,-219190
73.59,-219266
73.6,-219314
73.61,-219387
73.62,-219449
73.63,-219501
73.64,-219550
73.65,-219598
73.66,-219647
73.67,-219707
73.68,-219749
73.69,-219828
73.7,-219891
73.71,-219933
73.72,-219966
73.73,-219984
73.74,-220004
73.75,-220036
73.76,-220070
73.77,-220111
73.78,-220145
73.79,-220168
73.8,-220197
73.81,-220226
73.82,-220254
73.83,-220291
73.84,-220316
73.85,-220334
73.86,-220383
73.87,-220414
73.88,-220440
73.89,-220457
73.9,-220513
73.91,-220550
73.92,-220600
73.93,-220623
73.94,-220638
73.95,-220669
73.96,-220699
73.97,-220726
73.98,-220763
73.99,-220779
74,-220819
74.01,-220848
74.02,-220840
74.03,-220801
74.04,-220731
74.05,-220636
74.06,-220520
74.07,-220330
74.08,-220143
74.09,-219919
74.1,-219675
74.11,-219421
74.12,-219130
74.13,-218819
74.14,-218506
74.15,-218225
74.16,-217939
74.17,-217679
74.18,-217448
74.19,-217224
74.2,-217021
74.21,-216843
74.22,-216699
74.23,-216595
74.24,-216506
74.25,-216445
74.26,-216418
74.27,-216410
74.28,-216433
74.29,-216499
74.3,-216572
74.31,-216647
74.32,-216734
74.33,-216847
74.34,-216962
74.35,-217073
74.36,-217187
74.37,-217324
74.38,-217456
74.39,-217568
74.4,-217675
74.41,-217795
74.42,-217882
74.43,-218004
74.44,-218090
74.45,-218206
74.46,-218305
74.47,-218407
74.48,-218503
74.49,-218617
74.5,-218712
74.51,-218788
74.52,-218879
74.53,-218974
74.54,-219060
74.55,-219142
74.56,-219224
74.57,-219272
74.58,-219319
74.59,-219381
74.6,-219405
74.61,-219424
74.62,-219442
74.63,-219433
74.64,-219423
74.65,-219409
74.66,-219382
74.67,-219333
74.68,-219286
74.69,-219224
74.7,-219166
74.71,-219118
74.72,-219065
74.73,-219028
74.74,-218973
74.75,-218932
74.76,-218890
74.77,-218860
74.78,-218820
74.79,-218767
74.8,-218743
74.81,-218714
74.82,-218695
74.83,-218693
74.84,-218698
74.85,-218706
74.86,-218722
74.87,-218729
74.88,-218752
74.89,-218791
74.9,-218816
74.91,-218847
74.92,-218906
74.93,-218949
74.94,-219004
74.95,-219055
74.96,-219108
74.97,-219143
74.98,-219171
74.99,-219191
75,-219214
75.01,-219271
75.02,-219303
75.03,-219333
75.04,-219372
75.05,-219418
75.06,-219462
75.07,-219510
75.08,-219565
75.09,-219601
75.1,-219643
75.11,-219695
75.12,-219726
75.13,-219766
75.14,-219799
75.15,-219835
75.16,-219876
75.17,-219903
75.18,-219943
75.19,-219983
75.2,-220019
75.21,-220051
75.22,-220077
75.23,-220109
75.24,-220147
75.25,-220195
75.26,-220234
75.27,-220279
75.28,-220312
75.29,-220350
75.3,-220390
75.31,-220425
75.32,-220482
75.33,-220528
75.34,-220569
75.35,-220611
75.36,-220664
75.37,-220700
75.38,-220727
75.39,-220759
75.4,-220784
75.41,-220813
75.42,-220836
75.43,-220844
75.44,-220830
75.45,-220777
75.46,-220701
75.47,-220583
75.48,-220449
75.49,-220276
75.5,-220060
75.51,-219814
75.52,-219551
75.53,-219261
75.54,-218957
75.55,-218665
75.56,-218375
75.57,-218095
75.58,-217821
75.59,-217568
75.6,-217351
75.61,-217137
75.62,-216977
75.63,-216818
75.64,-216661
75.65,-216536
75.66,-216434
75.67,-216382
75.68,-216350
75.69,-216346
75.7,-216366
75.71,-216379
75.72,-216431
75.73,-216478
75.74,-216556
75.75,-216623
75.76,-216710
75.77,-216787
75.78,-216865
75.79,-216950
75.8,-217028
75.81,-217124
75.82,-217213
75.83,-217301
75.84,-217388
75.85,-217474
75.86,-217578
75.87,-217671
75.88,-217768
75.89,-217870
75.9,-217979
75.91,-218066
75.92,-218131
75.93,-218200
75.94,-218257
75.95,-218346
75.96,-218426
75.97,-218485
75.98,-218523
75.99,-218562
76,-218593
76.01,-218606
76.02,-218588
76.03,-218563
76.04,-218564
76.05,-218538
76.06,-218481
76.07,-218385
76.08,-218335
76.09,-218275
76.1,-218209
76.11,-218121
76.12,-218014
76.13,-217920
76.14,-217845
76.15,-217772
76.16,-217692
76.17,-217631
76.18,-217543
76.19,-217470
76.2,-217437
76.21,-217389
76.22,-217358
76.23,-217282
76.24,-217228
76.25,-217152
76.26,-217070
76.27,-217007
76.28,-216943
76.29,-216892
76.3,-216855
76.31,-216831
76.32,-216808
76.33,-216795
76.34,-216790
76.35,-216782
76.36,-216754
76.37,-216751
76.38,-216739
76.39,-216750
76.4,-216774
76.41,-216799
76.42,-216790
76.43,-216748
76.44,-216706
76.45,-216643
76.46,-216541
76.47,-216468
76.48,-216501
76.49,-216596
76.5,-216678
76.51,-216699
76.52,-216763
76.53,-216808
76.54,-216804
76.55,-216770
76.56,-216784
76.57,-216774
76.58,-216787
76.59,-216821
76.6,-216865
76.61,-216891
76.62,-216936
76.63,-216974
76.64,-217008
76.65,-217029
76.66,-217047
76.67,-217078
76.68,-217143
76.69,-217317
76.7,-217476
76.71,-217623
76.72,-217764
76.73,-217837
76.74,-217826
76.75,-217802
76.76,-217816
76.77,-217825
76.78,-217816
76.79,-217801
76.8,-217720
76.81,-217590
76.82,-217430
76.83,-217234
76.84,-217023
76.85,-216812
76.86,-216559
76.87,-216305
76.88,-216040
76.89,-215762
76.9,-215488
76.91,-215252
76.92,-214998
76.93,-214771
76.94,-214575
76.95,-214419
76.96,-214271
76.97,-214165
76.98,-214071
76.99,-213979
77,-213918
77.01,-213886
77.02,-213896
77.03,-213913
77.04,-213962
77.05,-214008
77.06,-214060
77.07,-214132
77.08,-215149
77.09,-215140
77.1,-215151
77.11,-215163
77.12,-215175
77.13,-215216
77.14,-215231
77.15,-215270
77.16,-215287
77.17,-215304
77.18,-215315
77.19,-215351
77.2,-215393
77.21,-215451
77.22,-215463
77.23,-215454
77.24,-215441
77.25,-215416
77.26,-215421
77.27,-215465
77.28,-215485
77.29,-215517
77.3,-215527
77.31,-215556
77.32,-215565
77.33,-215593
77.34,-215635
77.35,-215664
77.36,-215675
77.37,-215692
77.38,-215718
77.39,-215751
77.4,-215767
77.41,-215780
77.42,-215775
77.43,-215773
77.44,-215774
77.45,-215805
77.46,-215844
77.47,-215892
77.48,-215948
77.49,-215975
77.5,-216011
77.51,-216027
77.52,-216041
77.53,-216056
77.54,-216063
77.55,-216033
77.56,-215978
77.57,-215867
77.58,-215708
77.59,-215495
77.6,-215257
77.61,-215003
77.62,-214710
77.63,-214435
77.64,-214136
77.65,-213831
77.66,-213555
77.67,-213263
77.68,-213001
77.69,-212737
77.7,-212451
77.71,-212231
77.72,-212021
77.73,-211842
77.74,-211708
77.75,-211605
77.76,-211513
77.77,-211437
77.78,-211397
77.79,-211362
77.8,-211363
77.81,-211363
77.82,-211363
77.83,-211352
77.84,-211360
77.85,-211397
77.86,-211445
77.87,-211518
77.88,-211617
77.89,-211684
77.9,-211726
77.91,-211783
77.92,-211830
77.93,-211890
77.94,-211969
77.95,-212049
77.96,-212140
77.97,-212202
77.98,-212267
77.99,-212324
78,-212381
78.01,-212450
78.02,-212514
78.03,-212582
78.04,-212635
78.05,-212680
78.06,-212729
78.07,-212768
78.08,-212823
78.09,-212884
78.1,-212978
78.11,-213026
78.12,-213056
78.13,-213072
78.14,-213055
78.15,-213026
78.16,-212990
78.17,-212911
78.18,-212809
78.19,-212665
78.2,-212529
78.21,-212469
78.22,-212478
78.23,-212410
78.24,-212328
78.25,-212263
78.26,-212128
78.27,-211917
78.28,-211728
78.29,-211590
78.3,-211443
78.31,-211283
78.32,-211155
78.33,-210993
78.34,-210797
78.35,-211041
78.36,-210865
78.37,-210723
78.38,-210595
78.39,-210520
78.4,-210474
78.41,-210518
78.42,-210690
78.43,-210877
78.44,-211056
78.45,-211233
78.46,-211336
78.47,-211386
78.48,-211439
78.49,-211506
78.5,-211611
78.51,-211728
78.52,-211832
78.53,-211936
78.54,-212053
78.55,-212240
78.56,-212435
78.57,-212566
78.58,-212546
78.59,-212409
78.6,-212240
78.61,-212127
78.62,-212082
78.63,-212167
78.64,-212319
78.65,-212472
78.66,-212647
78.67,-212782
78.68,-212945
78.69,-213173
78.7,-213383
78.71,-213611
78.72,-213826
78.73,-214085
78.74,-214372
78.75,-214706
78.76,-215021
78.77,-215241
78.78,-215392
78.79,-215536
78.8,-215722
78.81,-215926
78.82,-216166
78.83,-216370
78.84,-216588
78.85,-216723
78.86,-216816
78.87,-216881
78.88,-216891
78.89,-216806
78.9,-216614
78.91,-216343
78.92,-216057
78.93,-215777
78.94,-215503
78.95,-215196
78.96,-214905
78.97,-214666
78.98,-214435
78.99,-214221
79,-213960
79.01,-213675
79.02,-213387
79.03,-213144
79.04,-212951
79.05,-212828
79.06,-212763
79.07,-212724
79.08,-212732
79.09,-212768
79.1,-212850
79.11,-212954
79.12,-213102
79.13,-213255
79.14,-213436
79.15,-213644
79.16,-213858
79.17,-214074
79.18,-214288
79.19,-214534
79.2,-214774
79.21,-215030
79.22,-215235
79.23,-215447
79.24,-215627
79.25,-215796
79.26,-215952
79.27,-216094
79.28,-216231
79.29,-216340
79.3,-216460
79.31,-216575
79.32,-216699
79.33,-216813
79.34,-216914
79.35,-217002
79.36,-217093
79.37,-217157
79.38,-217233
79.39,-217290
79.4,-217328
79.41,-217369
79.42,-217410
79.43,-217445
79.44,-217455
79.45,-217502
79.46,-217515
79.47,-217507
79.48,-217481
79.49,-217470
79.5,-217469
79.51,-217425
79.52,-217383
79.53,-217352
79.54,-217328
79.55,-217292
79.56,-217258
79.57,-217223
79.58,-217202
79.59,-217160
79.6,-217154
79.61,-217149
79.62,-217153
79.63,-217178
79.64,-217205
79.65,-217239
79.66,-217243
79.67,-217238
79.68,-217266
79.69,-217277
79.7,-217317
79.71,-217363
79.72,-217418
79.73,-217449
79.74,-217493
79.75,-217530
79.76,-217575
79.77,-217626
79.78,-217679
79.79,-217725
79.8,-217782
79.81,-217837
79.82,-217886
79.83,-217950
79.84,-218013
79.85,-218080
79.86,-218148
79.87,-218217
79.88,-218269
79.89,-218333
79.9,-218379
79.91,-218444
79.92,-218527
79.93,-218582
79.94,-218641
79.95,-218686
79.96,-218714
79.97,-218748
79.98,-218808
79.99,-218847
80,-218888
80.01,-218942
80.02,-218982
80.03,-219018
80.04,-219042
80.05,-219101
80.06,-219139
80.07,-219184
80.08,-219232
80.09,-219256
80.1,-219270
80.11,-219288
80.12,-219320
80.13,-219353
80.14,-219363
80.15,-219351
80.16,-219326
80.17,-219259
80.18,-219171
80.19,-219028
80.2,-218858
80.21,-218678
80.22,-218450
80.23,-218202
80.24,-217885
80.25,-217572
80.26,-217256
80.27,-216907
80.28,-216572
80.29,-216261
80.3,-215956
80.31,-215631
80.32,-215362
80.33,-215090
80.34,-214867
80.35,-214684
80.36,-214538
80.37,-214403
80.38,-214291
80.39,-214200
80.4,-214162
80.41,-214148
80.42,-214159
80.43,-214188
80.44,-214250
80.45,-214317
80.46,-214402
80.47,-214500
80.48,-214580
80.49,-214638
80.5,-214724
80.51,-214827
80.52,-214921
80.53,-215010
80.54,-215107
80.55,-215207
80.56,-215316
80.57,-215412
80.58,-215517
80.59,-215622
80.6,-215725
80.61,-215824
80.62,-215912
80.63,-215991
80.64,-216056
80.65,-216100
80.66,-216154
80.67,-216219
80.68,-216267
80.69,-216308
80.7,-216328
80.71,-216341
80.72,-216356
80.73,-216353
80.74,-216337
80.75,-216319
80.76,-216303
80.77,-216261
80.78,-216224
80.79,-216169
80.8,-216120
80.81,-216055
80.82,-215976
80.83,-215896
80.84,-215827
80.85,-215738
80.86,-215666
80.87,-215618
80.88,-215554
80.89,-215522
80.9,-215501
80.91,-215475
80.92,-215440
80.93,-215397
80.94,-215364
80.95,-215335
80.96,-215318
80.97,-215329
80.98,-215338
80.99,-215353
81,-215363
81.01,-215384
81.02,-215412
81.03,-215442
81.04,-215480
81.05,-215541
81.06,-215593
81.07,-215656
81.08,-215723
81.09,-215790
81.1,-215856
81.11,-215915
81.12,-215980
81.13,-216045
81.14,-216101
81.15,-216146
81.16,-216205
81.17,-216263
81.18,-216319
81.19,-216370
81.2,-216420
81.21,-216475
81.22,-216516
81.23,-216548
81.24,-216580
81.25,-216645
81.26,-216698
81.27,-216774
81.28,-216831
81.29,-216890
81.3,-216941
81.31,-217002
81.32,-217053
81.33,-217111
81.34,-217141
81.35,-217189
81.36,-217215
81.37,-217248
81.38,-217283
81.39,-217323
81.4,-217360
81.41,-217377
81.42,-217401
81.43,-217397
81.44,-217432
81.45,-217448
81.46,-217460
81.47,-217460
81.48,-217438
81.49,-217372
81.5,-217266
81.51,-217121
81.52,-216934
81.53,-216694
81.54,-216444
81.55,-216176
81.56,-215873
81.57,-215566
81.58,-215250
81.59,-214923
81.6,-214608
81.61,-214331
81.62,-214054
81.63,-213815
81.64,-213597
81.65,-213405
81.66,-213258
81.67,-213143
81.68,-213073
81.69,-213018
81.7,-213004
81.71,-213007
81.72,-213026
81.73,-213086
81.74,-213148
81.75,-213222
81.76,-213301
81.77,-213389
81.78,-213489
81.79,-213576
81.8,-213669
81.81,-213786
81.82,-213897
81.83,-214001
81.84,-214103
81.85,-214215
81.86,-214321
81.87,-214426
81.88,-214537
81.89,-214650
81.9,-214762
81.91,-214871
81.92,-214979
81.93,-215084
81.94,-215187
81.95,-215271
81.96,-215352
81.97,-215428
81.98,-215501
81.99,-215553
82,-215602
82.01,-215657
82.02,-215695
82.03,-215716
82.04,-215748
82.05,-215754
82.06,-215742
82.07,-215736
82.08,-215706
82.09,-215696
82.1,-215668
82.11,-215614
82.12,-215557
82.13,-215508
82.14,-215438
82.15,-215368
82.16,-215308
82.17,-215266
82.18,-215230
82.19,-215180
82.2,-215151
82.21,-215116
82.22,-215127
82.23,-215120
82.24,-215121
82.25,-215126
82.26,-215162
82.27,-215189
82.28,-215244
82.29,-215272
82.3,-215298
82.31,-215321
82.32,-215345
82.33,-215389
82.34,-215413
82.35,-215449
82.36,-215486
82.37,-215536
82.38,-215583
82.39,-215621
82.4,-215694
82.41,-215759
82.42,-215817
82.43,-215896
82.44,-215956
82.45,-216004
82.46,-216058
82.47,-216132
82.48,-216178
82.49,-216248
82.5,-216302
82.51,-216359
82.52,-216415
82.53,-216458
82.54,-216509
82.55,-216561
82.56,-216626
82.57,-216669
82.58,-216720
82.59,-216771
82.6,-216817
82.61,-216855
82.62,-216886
82.63,-216925
82.64,-216962
82.65,-216999
82.66,-217037
82.67,-217078
82.68,-217127
82.69,-217137
82.7,-217174
82.71,-217186
82.72,-217196
82.73,-217221
82.74,-217232
82.75,-217250
82.76,-217281
82.77,-217283
82.78,-217319
82.79,-217340
82.8,-217380
82.81,-217405
82.82,-217438
82.83,-217465
82.84,-217485
82.85,-217526
82.86,-217523
82.87,-217538
82.88,-217547
82.89,-217581
82.9,-217622
82.91,-217651
82.92,-217687
82.93,-217711
82.94,-217726
82.95,-217701
82.96,-217644
82.97,-217526
82.98,-217381
82.99,-217189
83,-216962
83.01,-216705
83.02,-216416
83.03,-216109
83.04,-215797
83.05,-215468
83.06,-215155
83.07,-214821
83.08,-214541
83.09,-214251
83.1,-214009
83.11,-213825
83.12,-213649
83.13,-213510
83.14,-213403
83.15,-213323
83.16,-213278
83.17,-213252
83.18,-213259
83.19,-213280
83.2,-213341
83.21,-213403
83.22,-213466
83.23,-213544
83.24,-213631
83.25,-213725
83.26,-213826
83.27,-213924
83.28,-214015
83.29,-214109
83.3,-214213
83.31,-214316
83.32,-214450
83.33,-214558
83.34,-214684
83.35,-214790
83.36,-214893
83.37,-214981
83.38,-215106
83.39,-215200
83.4,-215295
83.41,-215381
83.42,-215457
83.43,-215531
83.44,-215609
83.45,-215656
83.46,-215702
83.47,-215753
83.48,-215771
83.49,-215788
83.5,-215796
83.51,-215803
83.52,-215768
83.53,-215751
83.54,-215722
83.55,-215676
83.56,-215615
83.57,-215551
83.58,-215464
83.59,-215392
83.6,-215292
83.61,-215211
83.62,-215130
83.63,-215057
83.64,-214976
83.65,-214889
83.66,-214826
83.67,-214775
83.68,-214714
83.69,-214664
83.7,-214645
83.71,-214628
83.72,-214617
83.73,-214621
83.74,-214629
83.75,-214635
83.76,-214644
83.77,-214658
83.78,-214687
83.79,-214702
83.8,-214741
83.81,-214765
83.82,-214797
83.83,-214826
83.84,-214864
83.85,-214899
83.86,-214945
83.87,-214974
83.88,-215036
83.89,-215086
83.9,-215132
83.91,-215169
83.92,-215217
83.93,-215278
83.94,-215341
83.95,-215412
83.96,-215492
83.97,-215544
83.98,-215590
83.99,-215650
84,-215688
84.01,-215736
84.02,-215787
84.03,-215827
84.04,-215883
84.05,-215917
84.06,-215959
84.07,-216011
84.08,-216044
84.09,-216079
84.1,-216107
84.11,-216151
84.12,-216186
84.13,-216215
84.14,-216256
84.15,-216291
84.16,-216312
84.17,-216351
84.18,-216359
84.19,-216373
84.2,-216393
84.21,-216410
84.22,-216422
84.23,-216431
84.24,-216439
84.25,-216464
84.26,-216493
84.27,-216514
84.28,-216556
84.29,-216574
84.3,-216608
84.31,-216633
84.32,-216660
84.33,-216687
84.34,-216723
84.35,-216732
84.36,-216751
84.37,-216754
84.38,-216737
84.39,-216687
84.4,-216611
84.41,-216493
84.42,-216346
84.43,-216177
84.44,-215961
84.45,-215701
84.46,-215415
84.47,-215114
84.48,-214794
84.49,-214485
84.5,-214206
84.51,-213919
84.52,-213647
84.53,-213398
84.54,-213167
84.55,-212952
84.56,-212785
84.57,-212643
84.58,-212506
84.59,-212408
84.6,-212342
84.61,-212327
84.62,-212318
84.63,-212333
84.64,-212367
84.65,-212432
84.66,-212510
84.67,-212599
84.68,-212691
84.69,-212789
84.7,-212883
84.71,-212989
84.72,-213097
84.73,-213215
84.74,-213333
84.75,-213437
84.76,-213529
84.77,-213626
84.78,-213713
84.79,-213796
84.8,-213912
84.81,-214020
84.82,-214146
84.83,-214239
84.84,-214355
84.85,-214429
84.86,-214526
84.87,-214609
84.88,-214692
84.89,-214750
84.9,-214822
84.91,-214880
84.92,-214910
84.93,-214929
84.94,-214965
84.95,-214962
84.96,-214975
84.97,-214940
84.98,-215722
84.99,-215779
85,-215837
85.01,-215888
85.02,-215921
85.03,-215957
85.04,-215986
85.05,-216021
85.06,-216069
85.07,-216111
85.08,-216167
85.09,-216196
85.1,-216208
85.11,-216227
85.12,-216242
85.13,-216254
85.14,-216290
85.15,-216290
85.16,-216306
85.17,-216309
85.18,-216280
85.19,-216228
85.2,-216138
85.21,-216003
85.22,-215838
85.23,-215619
85.24,-215376
85.25,-215095
85.26,-214818
85.27,-214509
85.28,-214233
85.29,-213925
85.3,-213632
85.31,-213361
85.32,-213096
85.33,-212867
85.34,-212661
85.35,-212501
85.36,-212352
85.37,-212265
85.38,-212176
85.39,-212133
85.4,-212118
85.41,-212128
85.42,-212147
85.43,-212191
85.44,-212252
85.45,-212332
85.46,-212434
85.47,-212517
85.48,-212612
85.49,-212728
85.5,-212820
85.51,-212922
85.52,-213021
85.53,-213129
85.54,-213237
85.55,-213357
85.56,-213481
85.57,-213598
85.58,-213715
85.59,-213833
85.6,-213938
85.61,-214059
85.62,-214163
85.63,-214289
85.64,-214376
85.65,-214465
85.66,-214550
85.67,-214631
85.68,-214675
85.69,-214732
85.7,-214778
85.71,-214808
85.72,-214831
85.73,-214836
85.74,-214836
85.75,-214836
85.76,-214844
85.77,-214825
85.78,-214786
85.79,-214780
85.8,-214729
85.81,-214686
85.82,-214650
85.83,-214609
85.84,-214552
85.85,-214499
85.86,-214451
85.87,-214391
85.88,-214354
85.89,-214298
85.9,-214236
85.91,-214168
85.92,-214093
85.93,-214068
85.94,-214021
85.95,-214040
85.96,-214036
85.97,-214043
85.98,-214047
85.99,-214033
86,-214057
86.01,-214080
86.02,-214137
86.03,-214197
86.04,-214255
86.05,-214319
86.06,-214362
86.07,-214408
86.08,-214473
86.09,-214545
86.1,-214607
86.11,-214677
86.12,-214737
86.13,-214802
86.14,-214871
86.15,-214953
86.16,-215073
86.17,-215166
86.18,-215268
86.19,-215349
86.2,-215441
86.21,-215517
86.22,-215624
86.23,-215714
86.24,-215805
86.25,-215891
86.26,-215939
86.27,-215987
86.28,-216051
86.29,-216111
86.3,-216193
86.31,-216272
86.32,-216344
86.33,-216427
86.34,-216493
86.35,-216592
86.36,-216690
86.37,-216758
86.38,-216844
86.39,-216910
86.4,-216934
86.41,-216989
86.42,-217046
86.43,-217097
86.44,-217139
86.45,-217194
86.46,-217227
86.47,-217252
86.48,-217265
86.49,-217312
86.5,-217332
86.51,-217373
86.52,-217414
86.53,-217445
86.54,-217451
86.55,-217461
86.56,-217444
86.57,-217401
86.58,-217334
86.59,-217206
86.6,-217035
86.61,-216829
86.62,-216590
86.63,-216317
86.64,-216009
86.65,-215689
86.66,-215368
86.67,-215022
86.68,-214701
86.69,-214374
86.7,-214071
86.71,-213807
86.72,-213570
86.73,-213361
86.74,-213190
86.75,-213050
86.76,-212941
86.77,-212897
86.78,-212867
86.79,-212853
86.8,-212869
86.81,-212900
86.82,-212936
86.83,-212995
86.84,-213056
86.85,-213140
86.86,-213218
86.87,-213308
86.88,-213420
86.89,-213511
86.9,-213612
86.91,-213702
86.92,-213789
86.93,-213892
86.94,-214007
86.95,-214126
86.96,-214231
86.97,-214335
86.98,-214414
86.99,-214488
87,-214569
87.01,-214674
87.02,-214763
87.03,-214872
87.04,-214941
87.05,-215023
87.06,-215096
87.07,-215175
87.08,-215233
87.09,-215300
87.1,-215346
87.11,-215363
87.12,-215390
